-1.5620921,-2.7400295,-3.2659865,-3.57943,-3.2626175,-2.7311546,-1.9687221,-1.6544153,-1.4045506,-1.0512214,-0.87655484,-0.79523464,-0.82660912,-0.84355186,-0.79385607,-0.79808071,-0.79198864,-0.77394781,-0.78762299,-0.7920289,-0.82776482,-0.76991669,-0.78659949,-0.75837949,-0.75957496,-0.8137665,-0.830976,-0.83827078,-0.88325863,-0.87602131,-0.8709095,-0.89150689,-0.87711149,-0.84401922,-0.87186684,-0.92158923,-0.84568482,-0.86354421,-0.83143016,-0.78003243,-0.66184264,-0.65481432,-0.63037631,-0.48193185,-0.44427368,-0.38918416,-0.39008691,-0.34602666,-0.29160205,-0.28843458,-0.2750631,-0.25612312,-0.23711689,-0.18958913,-0.23216958,-0.18286713,-0.16251702,-0.1566987,-0.12484622,-0.13645033,-0.1001504,-0.053426746,-0.033213927,0.024221654,9.71E-05,0.021028275,0.080794482,0.097572477,0.11669346,0.17170372,0.21478776,0.24308427,0.27203953,0.35328861,0.33880463,0.31055734,0.39552256,0.40947583,0.40563128,0.43225131,0.49277594,0.49884559,0.46164853,0.46787194,0.4675505,0.4741208,0.42453454,0.43816229,0.48322246,0.46582147,0.50225538,0.51491019,0.58115905,0.58942483,0.64965118,0.78955738,0.92222734,0.95476834,1.1060014,1.2002769,1.3284327,1.4696614,1.5017741,1.5193628,1.4460453,1.3847705,1.3296041,1.1788169,1.0931766,0.9979545,0.79493478,0.62246382,0.51782578,0.5317186,0.55465786,0.51491283,0.52480105,0.57099441,0.61545619,0.55982354,0.56708054,0.586344,0.61361462,0.63343309,0.6564196,0.69726212,0.73073044,0.77325825,0.98054025,1.282705,1.3047351,1.3997327,1.4926766,1.5099273,1.4682037,1.3087922,1.4508906,1.4422417,0.79380343,-0.36119536,1
0.82910297,-1.5451509,-3.0740069,-4.0514991,-4.7204637,-4.2126641,-2.7644958,-1.8204991,-1.5752217,-0.67225866,-0.10336317,-0.19907951,-0.12114678,-0.14240696,-0.076480556,-0.10767269,-0.096322425,-0.061664896,-0.1775647,-0.27495466,-0.32822159,-0.27014796,-0.26571919,-0.46275545,-0.30986421,-0.39539013,-0.47040443,-0.5243886,-0.49345059,-0.62294069,-0.8228287,-0.80721803,-0.82830758,-0.98716947,-1.0679127,-0.89321613,-0.91883848,-0.96632466,-0.82300358,-0.91061888,-1.0092174,-0.86248938,-0.64617746,-0.68938161,-0.52694222,-0.34214189,-0.33151624,-0.24377812,-0.12682236,-0.086740035,-0.11257838,-0.050748947,-0.046914898,-0.08558533,-0.11520423,0.082284168,0.009619261,0.021238913,0.18283109,0.043000899,0.1360884,0.10991349,0.090613638,0.12392739,0.1135189,0.24094883,0.35057006,0.41565761,0.36719747,0.52381014,0.53777258,0.61998385,0.67208034,0.55215745,0.83506539,0.76750722,0.75736537,0.73767926,0.86461534,0.8532583,0.76643952,0.77973892,0.76460394,0.70007982,0.68263923,0.68981641,0.62463072,0.71475047,0.72264447,0.41996675,0.45013357,0.4654226,0.41548921,0.42661717,0.32375469,0.45153119,0.27262916,0.40861025,0.46387718,0.41643491,0.26725024,0.29927734,0.32507729,0.45808819,0.50656619,0.57423343,0.97386301,1.3141445,1.3390697,1.0940601,0.97969705,1.0146621,0.81932666,1.0076808,0.96639006,0.69773309,0.29814305,-0.021923573,-0.049669517,-0.1020911,-0.13583285,-0.11787307,-0.24342802,-0.11447557,-0.1717995,-0.14406735,-0.16353615,-0.036225223,-0.10511083,-0.021512253,0.48609049,1.3744191,1.8214028,1.8055578,2.0718874,1.7996981,1.2026126,0.045396421,0.079609672,0.24986525,1
-0.64014619,-3.9785576,-4.8097595,-4.5263335,-3.6374402,-2.3320544,-1.7192988,-1.4301162,-0.49479396,-0.09496081,-0.22096556,-0.16374001,-0.20426388,-0.15590013,-0.25761176,-0.29379253,-0.23613602,-0.26550325,-0.34217577,-0.31766284,-0.36286492,-0.30857986,-0.42266793,-0.47114504,-0.5381037,-0.47487863,-0.54795622,-0.58234215,-0.61482253,-0.69642013,-0.68080508,-0.77534478,-0.74010659,-0.87117053,-0.87464337,-0.91410877,-0.8546164,-0.86528681,-0.80334251,-0.67586497,-0.65403738,-0.57458664,-0.52395434,-0.36435592,-0.29799379,-0.20134357,-0.19763774,-0.14813556,-0.097253867,-0.08356128,-0.026248126,0.013294402,-0.008031109,0.12873425,0.11411217,0.091511042,0.097348791,0.20225426,0.12786252,0.24868395,0.1817277,0.2463991,0.31783796,0.34379051,0.37103619,0.40168992,0.40963261,0.47445126,0.49854977,0.53953418,0.51816802,0.60380589,0.63529132,0.58770424,0.62423075,0.58659768,0.56258248,0.61099482,0.50720185,0.49508941,0.49376227,0.4932979,0.41791804,0.35918411,0.44334034,0.40655005,0.34603576,0.47836491,0.38651523,0.29838823,0.28917312,0.332251,0.29042919,0.32989465,0.27371486,0.27977924,0.31129051,0.27692532,0.34918052,0.59236222,0.75033836,1.0219895,1.2344563,1.3399113,1.5334488,1.7701286,1.8186745,1.7792216,1.6194128,1.3332016,1.1900001,1.0265053,0.59945915,0.20029782,-0.015495258,-0.11914801,-0.17266255,-0.19622458,-0.069497715,-0.1380861,-0.09461127,-0.17721134,-0.086526585,-0.057871208,-0.15313923,-0.018006277,0.003188245,-0.03545833,0.007472258,0.089621474,0.58427405,1.4127145,1.4738286,1.3365254,1.2908193,0.8969135,0.58948278,0.50984168,1.2246327,-0.91747324,1
-0.4587831,-2.8085947,-4.1795065,-4.6488263,-4.0316416,-3.1480315,-2.0243684,-1.6448392,-1.4079304,-0.49289792,-0.25419062,-0.30380039,-0.19957585,-0.25751128,-0.23708861,-0.33858522,-0.36488243,-0.30934331,-0.31660206,-0.32361218,-0.32988947,-0.4133363,-0.43618085,-0.49856274,-0.53034228,-0.54943573,-0.55136446,-0.62930782,-0.56830408,-0.67205652,-0.70368176,-0.69649501,-0.73147475,-0.76227452,-0.82942036,-0.87600938,-0.70891107,-0.69213046,-0.66796352,-0.61326983,-0.57721142,-0.41154046,-0.44877956,-0.33947307,-0.27905536,-0.18602409,-0.047312382,-0.002331135,0.026991002,0.046466542,0.061063435,0.12388927,0.12346616,0.15174559,0.13730861,0.054754663,0.15415606,0.11822796,0.045048449,0.14107242,0.099783184,0.17854143,0.19298729,0.19865541,0.37702053,0.29484159,0.31100201,0.41474102,0.4302602,0.49716462,0.52761514,0.60398033,0.66214076,0.77336453,0.69785631,0.76492002,0.69656964,0.63867057,0.67757867,0.64980463,0.63923196,0.53249615,0.51839599,0.49306894,0.53525194,0.47556424,0.45268097,0.48810466,0.39947512,0.3556833,0.34125785,0.3640964,0.36252197,0.32292837,0.33760218,0.39854731,0.42300319,0.668845,0.88387903,1.0385593,1.0912424,1.2405283,1.438374,1.6369137,1.5929907,1.449306,1.376946,1.1739595,0.97820698,0.79511834,0.55954166,0.48815087,0.26558697,-0.12149769,-0.20067912,-0.27334677,-0.26401683,-0.24942773,-0.2369619,-0.28602795,-0.29277618,-0.29761404,-0.26322024,-0.29691916,-0.26895571,-0.29454561,-0.35846504,-0.21348082,-0.16608741,0.078060573,0.76790756,1.2972062,1.3429776,1.7213517,2.0378003,1.7486188,1.2305108,0.58124203,0.69110078,0.10024824,1
-1.2911034,-4.3935643,-4.5486718,-4.4784405,-3.3951027,-2.198368,-1.6380403,-1.2605658,-0.39596529,-0.11748854,-0.22124752,-0.19036545,-0.12621183,-0.24437463,-0.12654213,-0.14087986,-0.16307715,-0.14337658,-0.27056971,-0.21795473,-0.31266409,-0.30202352,-0.37486304,-0.38023592,-0.43610467,-0.48073133,-0.58996973,-0.57896138,-0.65387264,-0.6816666,-0.72137159,-0.7450336,-0.81099786,-0.87225136,-0.85598152,-0.92627936,-0.84792957,-0.84971719,-0.74225343,-0.73951648,-0.71951673,-0.6015943,-0.54199723,-0.41059337,-0.31221889,-0.18893569,-0.22890705,-0.16312346,0.044666905,0.002044605,-0.047926245,0.020562112,0.091796549,0.13823974,0.10404191,0.15502732,0.16684968,0.11987917,0.19619168,0.23307587,0.36591427,0.2577397,0.27737548,0.31556316,0.36923965,0.42382862,0.44915231,0.45804966,0.4787948,0.67552929,0.63611601,0.64774973,0.7442127,0.7671947,0.69077794,0.66229334,0.56455908,0.49375205,0.52509162,0.5071792,0.49894798,0.48595719,0.47891022,0.45381215,0.44030665,0.3974922,0.37116473,0.29010902,0.27096141,0.35073841,0.303277,0.24068597,0.21844233,0.28613852,0.20717075,0.22870025,0.25605945,0.24790307,0.35351233,0.55512845,0.78707945,1.0906252,1.3766896,1.4702655,1.6616833,1.7913799,1.7739741,1.7118294,1.556159,1.2180661,1.1861274,0.84728791,0.61764045,0.16931479,-0.16117856,-0.21525211,-0.31246155,-0.31562407,-0.40973307,-0.33124458,-0.207368,-0.1878571,-0.20293339,-0.22465129,-0.24294704,-0.21716441,-0.26440034,-0.27207461,-0.14958914,-0.041064449,0.29306991,1.0522087,1.5640349,1.3635116,1.5541488,1.3077622,0.84330801,0.36522217,0.96841679,0.34697987,1
1.8846043,0.1717202,-1.9206488,-3.8937237,-3.9837639,-3.0788266,-1.819952,-1.2543587,-1.1079397,-0.27027636,0.027067241,0.081937992,0.057924521,0.053789975,0.14299886,0.053924442,0.11609242,0.020625213,0.039508611,-0.06870451,-0.20135394,-0.20547875,-0.24004598,-0.2910097,-0.36696141,-0.51694462,-0.43040992,-0.55659702,-0.64301617,-0.73417685,-0.85820711,-0.83993177,-0.93366425,-1.10211,-1.3068755,-1.3361442,-1.3725388,-1.3792523,-1.3029174,-1.3037524,-1.3157144,-1.1305058,-0.9826732,-0.98067412,-0.89945612,-0.69868026,-0.64607355,-0.56718344,-0.32229646,-0.34403528,-0.30728761,-0.29578565,-0.24238427,-0.18480751,-0.16087406,-0.14411443,-0.26006903,-0.16643497,-0.12339296,-0.20623764,-0.13706751,-0.16761987,-0.1090829,-0.02670539,-0.082919018,-0.050589675,0.1062958,0.10292027,0.14747873,0.14631556,0.20697311,0.30249997,0.25746773,0.30790933,0.31676905,0.3265932,0.27301693,0.39510731,0.39020855,0.35324233,0.45651741,0.35077509,0.3390247,0.31402824,0.4196612,0.44921158,0.4220275,0.46043631,0.35511465,0.22345122,0.18493991,0.29174213,0.346799,0.36014254,0.20064681,0.27025471,0.43003159,0.61410089,0.68552003,0.82481009,0.99396288,1.2527786,1.577589,1.8550783,1.7857363,1.8306156,1.6473879,1.4202031,1.2730216,0.93912313,0.63646514,0.33192956,0.019631646,-0.15740247,-0.26529603,-0.33495596,-0.25611523,-0.23624846,-0.29044296,-0.28512202,-0.28201238,-0.24002992,-0.315206,-0.31108591,-0.25257133,-0.20704462,-0.20337041,-0.09160554,-0.018787342,0.56103838,1.2112221,0.88922918,1.0253446,1.6737849,2.1338506,2.1321585,1.9923826,2.0179949,2.464755,1.6720334,1
-1.4799938,-2.4232606,-3.1304038,-3.7872985,-4.0586391,-3.5750365,-2.6390865,-1.9221544,-1.889463,-1.4365156,-0.76188809,-0.64355255,-0.7330088,-0.66554187,-0.69558453,-0.65644519,-0.71524905,-0.72872532,-0.68567455,-0.72687076,-0.68876632,-0.71938101,-0.5031594,-0.61031994,-0.61889226,-0.53371775,-0.43495188,-0.31962518,-0.30943926,-0.23116669,-0.36553593,-0.54466283,-0.68963875,-0.54880935,-0.56055527,-0.55860213,-0.34540722,-0.2972145,-0.40238649,-0.40610854,-0.32131568,-0.32093763,-0.28350256,-0.25509025,-0.2571466,-0.060267216,-0.097601563,-0.23990728,-0.051867713,-0.029073524,0.011312213,-0.027607794,-0.18577734,-0.040449611,0.20082907,0.11026996,-0.029390483,-0.14898149,-0.021509851,0.24808648,0.21453752,0.11484529,0.15885398,0.34689185,0.42749619,0.27095051,0.2647187,0.42222736,0.38048772,0.35861428,0.38361922,0.41145168,0.42089308,0.40447511,0.40641211,0.43443012,0.49452121,0.49587696,0.51886282,0.63306934,0.60892031,0.61424313,0.52673098,0.50235884,0.54456574,0.66000746,0.67136249,0.60589004,0.69269659,0.63915612,0.62704657,0.61975211,0.61827139,0.64489251,0.79856247,0.89189932,0.97400819,0.94324735,1.2653083,1.5772712,1.8115498,2.0341572,2.0041686,1.8224621,1.7489097,1.6739232,1.5664923,1.406927,1.0204707,0.79350407,0.59402618,0.31320638,0.27545786,0.34556523,0.29143652,0.20965719,0.2090896,0.23691177,0.09050592,0.10750742,0.10181636,0.078892603,0.28535881,0.31038236,0.40130674,0.30100666,0.35735595,0.3168531,0.29179658,0.90379464,1.3604238,1.1868586,0.71437929,0.008302467,-0.53172244,-0.78830892,-0.70480512,-0.25754326,-0.078796731,-0.56004453,1
-0.86865821,-3.4064716,-4.0736111,-4.4832607,-4.1153167,-2.8037974,-1.9668512,-1.7002429,-0.89198023,-0.34221917,-0.32979021,-0.27467375,-0.24980892,-0.379084,-0.33441344,-0.32781025,-0.33806416,-0.31269476,-0.31743889,-0.33322459,-0.3778741,-0.37637922,-0.35053801,-0.37181481,-0.44754189,-0.47769549,-0.5306523,-0.55440239,-0.54146386,-0.59524646,-0.63305231,-0.73873566,-0.76776261,-0.7303688,-0.73048414,-0.74296826,-0.78071374,-0.78021013,-0.70247728,-0.5045624,-0.60520406,-0.42584299,-0.44800054,-0.32840157,-0.24560938,-0.14432198,-0.031107749,-0.07007808,-0.026551924,0.045903529,0.065244442,0.082338791,0.22744345,0.24847156,0.25159577,0.33424613,0.2744414,0.26059383,0.24259188,0.28609573,0.38174322,0.41774955,0.38715479,0.49344243,0.5038567,0.50715533,0.57516048,0.60391317,0.63013935,0.67856977,0.72131174,0.69896928,0.70916276,0.73252606,0.68359611,0.6185821,0.69474652,0.69208173,0.69099119,0.65756765,0.68186405,0.58959014,0.60150543,0.60511374,0.52994518,0.48106263,0.45582921,0.44224668,0.55242482,0.46821922,0.49028838,0.34538991,0.41607402,0.49749581,0.34364698,0.31129315,0.36125337,0.33442153,0.59799875,0.77058131,1.0216137,1.1792891,1.2958485,1.4554667,1.8290215,1.9610516,1.8830115,1.7560222,1.6662394,1.4977803,1.2115063,0.99675649,0.52451854,0.044181619,-0.23995702,-0.35831826,-0.34760649,-0.32116729,-0.30887227,-0.36874017,-0.40149434,-0.36817179,-0.38710673,-0.42202544,-0.42060819,-0.44243104,-0.40266529,-0.3747611,-0.42133015,-0.28154624,0.085168027,0.9476447,1.1796065,0.91125129,0.73934274,0.26748406,0.14803536,0.10359151,1.0160848,-0.2178711,1
-0.22003694,-2.5066129,-3.8914454,-4.8482871,-4.313241,-3.0406695,-2.1624594,-1.7575179,-0.8842511,-0.36267895,-0.40634587,-0.35895272,-0.39236009,-0.39533094,-0.37582461,-0.28840472,-0.2643606,-0.21917189,-0.2748883,-0.35945746,-0.40572412,-0.36700958,-0.3749866,-0.37728036,-0.40284219,-0.38570522,-0.39214931,-0.48888112,-0.56370793,-0.63793688,-0.64685372,-0.60973582,-0.77976079,-0.72576024,-0.77273933,-0.68305702,-0.66283795,-0.65331946,-0.59626804,-0.56131438,-0.50442842,-0.45478785,-0.24952254,-0.25137929,-0.16554247,-0.11036379,-0.007498877,0.053650195,0.081752438,0.017798435,0.17041671,0.18637737,0.19206095,0.24511707,0.21631172,0.22625082,0.29280947,0.39172438,0.34010329,0.31757222,0.3676071,0.40526764,0.47551121,0.42276703,0.51561411,0.46333904,0.53610235,0.5990957,0.67117547,0.66353477,0.71752437,0.76621953,0.78048247,0.71833359,0.69218123,0.70552312,0.70261114,0.6975965,0.63730409,0.68215664,0.65080625,0.70628747,0.59315057,0.53287384,0.56693986,0.45809781,0.53297418,0.40316359,0.26479612,0.3578249,0.39211851,0.33214096,0.33723817,0.27687599,0.30088427,0.31889347,0.2543598,0.36495897,0.57659169,0.81713732,1.1081017,1.1932729,1.3896345,1.4805829,1.8422225,1.8855045,1.8533032,1.8007352,1.5382608,1.3071129,0.99319573,0.7930269,0.27327359,-0.1582829,-0.4029967,-0.42783203,-0.43233039,-0.39018959,-0.41761878,-0.47327609,-0.41374255,-0.47590692,-0.33332854,-0.45100103,-0.39672912,-0.39433238,-0.43275646,-0.30348568,-0.13740705,0.16233053,0.80990842,1.0354662,1.0086203,0.91742782,0.55058486,0.092920268,0.033567545,0.50320497,1.0913906,-1.4587479,1
-1.0365663,-2.2987881,-3.0251143,-3.6295928,-3.2620995,-2.633458,-1.9816952,-1.7910141,-1.5568263,-1.1386365,-0.96084606,-0.99182307,-0.955161,-0.91527414,-0.90702272,-0.88551005,-0.91382589,-0.88601321,-0.91016383,-0.90349332,-0.86353595,-0.90797899,-0.85841413,-0.89419978,-0.8597496,-0.91694826,-0.86201222,-0.89431005,-0.97423656,-0.96334279,-1.0264669,-0.99674706,-0.97913968,-1.0042669,-0.97320451,-0.91407736,-0.90125706,-0.8806959,-0.81647225,-0.81380513,-0.72342525,-0.62496549,-0.6102799,-0.56698369,-0.4926202,-0.41181481,-0.36758053,-0.31318698,-0.29911064,-0.24337261,-0.22421231,-0.22304414,-0.22890997,-0.14905529,-0.083752063,-0.15800347,-0.13513376,-0.11514825,-0.087347298,-0.079960553,-0.080682683,0.022467522,0.009599448,0.055090257,0.092023616,0.12155093,0.20674161,0.25634445,0.28556147,0.33904602,0.41132657,0.44415511,0.43240292,0.49306958,0.49334558,0.49227334,0.54115931,0.5731793,0.58405062,0.58767855,0.61813612,0.58636665,0.60137151,0.53927512,0.55007299,0.54177926,0.5391694,0.5095287,0.50605177,0.53186288,0.54216271,0.52481092,0.52948008,0.47528179,0.47167905,0.55614784,0.69429682,0.81100434,0.98003987,1.0356007,1.0628085,1.2433984,1.3562485,1.4398544,1.4501335,1.4366269,1.296767,1.2144491,1.1671103,1.0641962,0.97846307,0.79767077,0.62969167,0.4580601,0.43138302,0.46246639,0.42767161,0.46270916,0.4189842,0.4544757,0.41639447,0.44602617,0.51118678,0.42408816,0.43870254,0.48692462,0.48788309,0.52504922,0.58905952,0.79178506,1.18086,1.3870894,1.4164995,1.6594878,1.8034701,1.687296,1.4486802,1.2344603,1.3642857,0.96479353,1
0.78315509,-0.076385348,-1.7946113,-2.9717632,-3.8722277,-4.4443583,-3.5313948,-2.300387,-1.7873685,-1.5486015,-0.48604076,-0.40188324,-0.3159768,-0.41539563,-0.28620406,-0.35502443,-0.372953,-0.3306472,-0.40342286,-0.40925871,-0.42745472,-0.40743652,-0.47740871,-0.53121299,-0.56302001,-0.54251314,-0.58090924,-0.55834255,-0.59469742,-0.76194409,-0.72284442,-0.86460717,-0.80254964,-0.91131006,-0.87665429,-0.84187708,-0.84663229,-0.91388205,-0.87644698,-0.85965607,-0.83407635,-0.61963359,-0.60922863,-0.51604122,-0.40408989,-0.35462255,-0.30581697,-0.12687565,-0.17477811,-0.19975405,-0.093264149,0.089100997,-0.015370159,0.032344036,0.089265163,0.077337841,0.14983029,0.2081977,0.23743912,0.16095205,0.2167996,0.23658122,0.14175102,0.30838096,0.32505993,0.37861641,0.3838752,0.44365877,0.43769426,0.50692197,0.54633016,0.5327313,0.58954735,0.61015973,0.72989191,0.61402182,0.67432152,0.66367151,0.61984052,0.56444194,0.61122062,0.63828186,0.50724093,0.53024247,0.50418232,0.55828915,0.52884333,0.42332719,0.41934812,0.46487484,0.33738936,0.41539326,0.37268341,0.45959619,0.42606874,0.36419299,0.33672715,0.32049857,0.37475031,0.48230149,0.76782905,1.1555999,1.2518941,1.3221461,1.5316475,1.8898034,2.1353296,2.0644438,1.9975034,1.8939772,1.5358927,1.4424264,1.1534181,0.75226614,0.1326564,-0.26124686,-0.31709546,-0.34659135,-0.42306692,-0.45803658,-0.36765509,-0.37669625,-0.41416152,-0.41775397,-0.31948273,-0.36127664,-0.27414494,-0.30003006,-0.32314555,-0.20244088,-0.064776692,0.41510565,1.0030972,1.1753906,1.4452271,1.3692889,1.2875823,0.63042531,0.16713985,0.59899392,1
-0.87916286,-3.3880475,-3.9044576,-4.1268604,-3.8277188,-2.6375645,-1.9929159,-1.853533,-1.2555223,-0.5881146,-0.60469116,-0.57167784,-0.61695176,-0.57922596,-0.51258519,-0.6201186,-0.56294509,-0.56147075,-0.57241478,-0.55244568,-0.52407786,-0.55129359,-0.53522841,-0.63830454,-0.6307699,-0.63354326,-0.72217309,-0.68429766,-0.76410537,-0.75778799,-0.82805377,-0.78216335,-0.849961,-0.88425133,-0.85959961,-0.84586363,-0.87711888,-0.81287118,-0.7507936,-0.73199549,-0.65354326,-0.5889551,-0.47435083,-0.46241404,-0.32481345,-0.23583045,-0.24945526,-0.12795351,-0.12581774,-0.12059905,-0.055361516,0.022767013,0.045615321,0.046877698,0.095060921,0.11543806,0.11138746,0.11376613,0.1886325,0.20979128,0.25355188,0.29481579,0.31104113,0.35901241,0.3608421,0.40633243,0.45715843,0.42892471,0.44509371,0.58791759,0.55567315,0.62086433,0.60540875,0.68119432,0.73225826,0.71734189,0.6243838,0.67545373,0.68957175,0.57608134,0.6064419,0.56060936,0.55865933,0.6135863,0.57220166,0.52169285,0.51570246,0.5220498,0.44028149,0.43479004,0.45681842,0.43215474,0.44434598,0.47050326,0.42028998,0.42453024,0.50577069,0.49987329,0.66364314,0.8994511,1.1089729,1.2015408,1.4220666,1.5551089,1.7398958,1.8481794,1.841036,1.8391419,1.5544089,1.4681445,1.246502,0.9506559,0.6904314,0.25787661,0.022660918,0.003755025,-0.070860548,-0.02480752,-0.000403029,-0.10643911,-0.046663337,-0.060879,0.024493129,-0.032076071,-0.021488343,0.027779045,-0.020889556,0.041939083,0.085098236,0.19101639,0.60162782,1.2409178,1.3064701,1.2171722,1.0935793,0.53837417,0.30040177,0.25567209,1.1088154,-0.003109729,1
-0.25652744,-2.4647759,-3.4779819,-4.2579763,-4.2405203,-3.4509544,-2.1683132,-1.6320745,-1.4654307,-0.68211428,-0.29244459,-0.25418116,-0.26643823,-0.25182356,-0.25298912,-0.31993678,-0.2925768,-0.29862617,-0.34725535,-0.41091474,-0.30464944,-0.14735166,-0.31161108,-0.36519173,-0.46005848,-0.50359777,-0.53865239,-0.54824546,-0.64896238,-0.52464178,-0.51756754,-0.65138213,-0.58718446,-0.69623182,-0.71276791,-0.74978352,-0.89677904,-0.87459424,-0.77542361,-0.74346138,-0.6821725,-0.69775057,-0.79298658,-0.57447311,-0.51652908,-0.31064957,-0.2695566,-0.271339,-0.1462859,0.024444523,-0.10577005,-0.067401045,0.070702695,0.090206811,0.17814664,0.097768715,0.069069505,0.043127212,0.12082902,0.2969086,0.10111219,0.12917357,0.22593303,0.25204819,0.20054139,0.25890637,0.3112415,0.21612164,0.33874212,0.3941518,0.41880421,0.57200249,0.47294508,0.50161455,0.62180726,0.672613,0.5971115,0.61500609,0.6736282,0.70370995,0.58163618,0.56395945,0.58760268,0.57896463,0.62653975,0.53972819,0.46829753,0.58314648,0.55112069,0.55930931,0.46802179,0.41686333,0.37299448,0.48953461,0.4920276,0.41353438,0.54248052,0.62119884,0.75937368,0.87246189,1.0542352,1.4168237,1.7074514,2.0305197,2.0383961,1.9985873,1.7516241,1.696807,1.5281246,1.109981,0.78780999,0.33447659,0.17509958,0.017710833,-0.18963522,-0.18124872,-0.27270137,-0.22084287,-0.16449991,-0.18183105,-0.14588564,-0.21328527,-0.20346759,-0.16249619,-0.15127684,-0.18414016,-0.065533864,-0.01516979,0.40788109,1.2438459,1.4040473,1.1240063,1.3983155,1.3325145,0.97250311,0.28032691,0.09524982,0.40615071,0.26593978,-1.50672,1
-1.758845,-3.1691928,-3.5205906,-4.2189924,-4.0198211,-3.4944841,-2.4228806,-1.3232342,-1.1220475,-0.65882377,-0.22623063,-0.23243422,-0.25165857,-0.048921096,-0.084849593,-0.14361586,-0.18506292,-0.19602949,-0.18128384,-0.14522636,-0.020735167,0.037921165,-0.17199098,-0.26710355,-0.17818251,-0.14502644,-0.11157265,-0.27792765,-0.2647835,-0.20473657,-0.26602895,-0.20338666,-0.22732435,-0.26193165,-0.17350366,-0.26016176,-0.2777366,-0.2374167,-0.32089463,-0.14134252,-0.085825679,-0.032765392,-0.01418223,0.091416028,0.19320618,0.14854217,0.089818228,0.079747434,0.20020506,0.17252339,0.15461381,0.11740811,-0.051104148,0.062734029,0.20325908,0.19462973,0.066591787,0.008974516,0.023344533,0.056822025,0.012209506,-0.11986765,-0.021591044,0.071330345,-0.041167852,-0.17227134,-0.085831448,0.15402331,0.10874713,0.23484689,0.19778652,0.084523737,0.13345032,0.39405569,0.31242004,0.40679284,0.47843639,0.52081611,0.60464777,0.43459403,0.45020135,0.47043,0.54762634,0.56772616,0.66259025,0.59005601,0.45616852,0.53005807,0.37840343,0.33407514,0.4341153,0.37797875,0.48519132,0.59598827,0.79186501,0.8660849,0.86712828,1.082029,1.3988632,1.5705255,1.8871152,1.9957997,1.9670856,1.9516399,1.648445,1.4455866,1.3321123,1.0840939,0.82374609,0.49936427,0.17531333,-0.069137753,-0.27264152,-0.25370207,-0.31659371,-0.26098666,-0.30137924,-0.33396609,-0.35807272,-0.32547207,-0.3635476,-0.27524192,-0.13133358,-0.2104231,-0.21820072,-0.21641232,-0.10255647,0.10785284,0.48797485,1.4630997,1.9001333,1.5997153,1.398505,0.7164396,-0.056362929,-0.80705501,-1.2850823,-1.2818495,-0.85471348,-1.6562166,1
-0.27789914,-0.59253123,-1.4331421,-1.7954276,-2.4690579,-2.4010029,-1.6712765,-0.3079911,0.37464642,0.6636284,1.2125713,1.4852039,1.421773,1.4355976,1.4596495,1.3733669,1.3605821,1.2662603,1.2950507,1.2755922,1.2888118,1.253245,1.160974,1.1298855,1.1277921,1.0923295,1.058796,1.0134661,0.99141738,0.89812958,0.84376631,0.88089621,0.80600634,0.80383078,0.74608249,0.72339817,0.79534237,0.6606431,0.67306873,0.6207524,0.62195938,0.6797582,0.71915279,0.76037573,0.78689683,0.75924638,0.69750859,0.69361438,0.65818778,0.56414159,0.59330143,0.45939606,0.44965004,0.39344486,0.33864955,0.37679748,0.29981641,0.32493342,0.25829061,0.23347775,0.22738373,0.20189644,0.13048604,0.22519998,0.10790277,0.031549001,0.19691665,0.22495822,0.21961746,0.26588549,0.34643153,0.32153821,0.37217521,0.33129478,0.38056259,0.31425464,0.31006348,0.28769423,0.40114216,0.30015773,0.22124475,0.2372095,0.1756677,0.0712617,-0.000488217,-0.038388692,-0.049538286,-0.10048638,-0.17768192,-0.25294946,-0.26471385,-0.17387113,-0.15444994,-0.26508071,-0.31760975,-0.25448749,-0.2476256,-0.35684042,-0.37512858,-0.37114324,-0.38743836,-0.3480136,-0.18253986,-0.18979088,0.13822358,0.29701853,0.35416398,0.11714491,-0.30927278,-0.47171696,-0.50413155,-0.53421386,-0.58699148,-0.60380284,-0.85772855,-1.1431116,-1.3546678,-1.2918793,-1.3900407,-1.3124605,-1.3385035,-1.3918767,-1.4059273,-1.4537243,-1.4061377,-1.4112177,-1.496455,-1.5367403,-1.4290879,-1.3775425,-0.87617933,0.31268064,0.83644094,0.77542358,0.65313388,-0.26573714,-1.8398876,-3.3180567,-3.3888837,-3.4953093,1
-0.51444708,-2.9963067,-4.2219032,-4.3824864,-4.1622177,-3.7841581,-2.7786569,-1.5426777,-1.2952265,-0.75445377,-0.092582903,-0.042210592,-0.028152483,-0.041814761,-0.073262152,0.016470958,-0.026283856,0.009593198,0.08943333,0.10311882,0.012381619,-0.034073603,0.015881558,0.016609323,-0.054992598,-0.094308036,-0.13854898,-0.18922942,-0.15981035,-0.15731443,-0.29504425,-0.32180834,-0.30662786,-0.34956466,-0.40762163,-0.43320546,-0.2779901,-0.25563502,-0.23426917,-0.18580195,-0.18607985,-0.17973213,-0.047326895,-0.021967967,0.048741312,0.16069349,0.15435373,0.18159055,0.21139728,0.1794285,0.22267691,0.22853367,0.18575172,0.14750846,0.17012434,0.18108536,0.17870438,0.10364941,0.087431534,0.12701085,0.046299445,0.049987163,0.03537195,0.093799315,0.2213554,0.21135646,0.29450328,0.18043943,0.18440425,0.29402741,0.35708374,0.42999633,0.41781593,0.400382,0.38386623,0.45598986,0.46871112,0.3934743,0.46317644,0.53093745,0.45104712,0.4409764,0.34602857,0.36063995,0.34063015,0.30453454,0.29836034,0.29882587,0.25215047,0.16620825,0.23260573,0.25845692,0.29587147,0.44343144,0.62433966,0.87850269,1.0210854,0.98559171,1.2892971,1.4374747,1.7643601,1.8814687,1.7557381,1.6912144,1.5308468,1.4317786,1.2542014,0.92467386,0.60503018,0.3314283,-0.14691888,-0.2758142,-0.42118832,-0.49536213,-0.46010184,-0.49594965,-0.5620958,-0.62377929,-0.51334457,-0.49725709,-0.47430173,-0.43934597,-0.49315372,-0.45630876,-0.49623568,-0.48689532,-0.39982901,-0.25816981,0.2650085,0.83608528,0.97787364,1.1977519,1.3468913,1.2025985,1.0118776,0.45042487,0.4240742,0.6793944,0.13642533,-2.1065072,1
1.166522,1.1452179,-0.49613736,-2.0407862,-2.80045,-3.5274208,-3.5707804,-2.4915888,-1.7798968,-1.8187144,-1.2556575,-0.54511862,-0.57369362,-0.57089601,-0.5218156,-0.60198906,-0.55595449,-0.58364187,-0.59528192,-0.53612325,-0.60229224,-0.60476639,-0.61243735,-0.68390278,-0.71646651,-0.71799373,-0.7141459,-0.74794757,-0.76197832,-0.74721089,-0.84797012,-0.93605427,-0.96193643,-0.92729032,-1.0174016,-1.0198882,-1.1014155,-1.1254485,-1.0363716,-1.0275497,-0.94046527,-0.92716035,-0.84884362,-0.86787754,-0.77186856,-0.64863925,-0.61473002,-0.60389182,-0.48770821,-0.35432348,-0.38746607,-0.32222712,-0.24235309,-0.24117755,-0.15065455,-0.14656982,-0.24644228,-0.21772494,-0.26674711,-0.071293487,-0.16705668,-0.18801783,-0.096888391,-0.021040607,0.00862008,0.008299543,0.017007858,0.057981908,0.14275248,0.18754064,0.19807398,0.23866517,0.36173553,0.33580861,0.35550127,0.40274862,0.38606548,0.33000661,0.49082807,0.47124636,0.44147789,0.56840323,0.44834228,0.51951564,0.47906963,0.39102886,0.54249023,0.42791335,0.44991164,0.32350384,0.44612695,0.41035538,0.39541133,0.35987609,0.4439777,0.46011688,0.29609796,0.45042937,0.31608342,0.54518336,0.67979263,1.0438137,1.2502613,1.4032681,1.3554206,1.570107,2.0332518,2.0286787,2.0794826,1.8925094,1.7560506,1.6935296,1.4428853,1.2257731,0.62898801,0.35698488,0.018046998,-0.021410619,-0.000369051,0.041233551,0.086745751,0.12140892,0.063767908,0.041584434,0.062449367,0.054982778,0.082571049,0.10829876,0.18095602,0.19418767,0.23304878,0.61102206,1.1653012,1.2132959,1.6239374,1.7931114,1.8980298,1.6435542,1.2374424,1.6936512,1
-1.6894022,-4.4714521,-4.9799502,-4.4962148,-3.1564722,-1.9262792,-1.5391181,-0.83067517,-0.16633258,-0.14816776,-0.12157769,-0.097195058,-0.22241984,-0.23693573,-0.29219974,-0.28660125,-0.13062871,-0.24852688,-0.33668663,-0.23487033,-0.23493302,-0.34484441,-0.35625543,-0.43415765,-0.56057567,-0.50668532,-0.54971566,-0.55606116,-0.64586467,-0.60278762,-0.6223676,-0.75178712,-0.7909102,-0.90278208,-0.86769127,-0.82740626,-0.8369098,-0.8743374,-0.90510824,-0.71017648,-0.75130644,-0.63753332,-0.56205552,-0.5359029,-0.30835291,-0.21456975,-0.10796956,-0.036121897,0.016387082,-0.003870321,0.085866999,0.091557748,0.055587361,0.11255095,0.079471083,0.087182875,0.10565897,0.13560419,0.117311,0.20093557,0.24168217,0.1679822,0.20916306,0.20267287,0.25439484,0.27886358,0.3156816,0.34720034,0.5258795,0.46747519,0.47698228,0.54308898,0.58791226,0.59037956,0.57165295,0.60051481,0.59571269,0.60638626,0.42712681,0.56044698,0.58279376,0.4856937,0.51358941,0.55545953,0.51803286,0.42915204,0.35536185,0.34357646,0.41372918,0.36165048,0.32933535,0.33075573,0.32979778,0.34582355,0.29121483,0.31407479,0.29968292,0.44145741,0.62622884,0.82993152,0.96853943,1.1641968,1.2922156,1.4966666,1.7579297,1.7928203,1.8279732,1.7769058,1.5626956,1.4171189,1.1220508,0.85011432,0.45339189,0.1011419,-0.15787221,-0.084953536,-0.15141239,-0.16877707,-0.06444703,-0.20654133,-0.13989297,-0.13277367,-0.068065484,0.007523801,-0.070103015,-0.12172591,-0.012081884,-0.075201084,-0.087148016,0.27412363,0.98565751,1.6171599,1.3344264,1.1497066,1.0188327,0.39318519,0.009661662,-0.18918277,0.83587271,-0.18564152,1
-0.80251388,-2.8033661,-3.6301026,-3.9891633,-3.9289094,-3.6451798,-2.8228196,-1.8201912,-1.5549356,-1.2898765,-0.55206903,-0.40696867,-0.3791599,-0.24159971,-0.23808721,-0.21467258,-0.18917885,-0.21729689,-0.17768998,-0.29086318,-0.29370824,-0.24726624,-0.30710499,-0.34541012,-0.43971541,-0.50084855,-0.45570146,-0.48217918,-0.48660156,-0.53143267,-0.55451788,-0.56445882,-0.51105858,-0.53514255,-0.66763707,-0.56372602,-0.46472826,-0.59630355,-0.47174522,-0.39539189,-0.44221492,-0.25949478,-0.20762475,-0.24667599,-0.16627635,-0.09004732,-0.12285471,-0.065486257,0.039024498,0.080076999,0.053460084,0.08949449,0.14264874,0.10357362,0.13223402,0.056330672,0.090928478,0.17661616,0.096951739,0.18791589,0.09542485,0.14625791,0.15941725,0.23475654,0.17233382,0.26903109,0.18744609,0.33475018,0.33416418,0.24703916,0.3200059,0.41448552,0.41822304,0.35880481,0.44957847,0.34314354,0.4607349,0.49788537,0.55833886,0.49827925,0.53758053,0.49453273,0.44415722,0.45940694,0.39733523,0.40077847,0.3962651,0.38221948,0.33695513,0.38469605,0.38634915,0.46541918,0.47936463,0.4636277,0.57370382,0.71732833,0.82437206,1.0971233,1.2905196,1.5873935,1.8755352,2.0243356,2.094976,2.0359623,1.7838103,1.6458003,1.528123,1.1015128,0.85575946,0.45812039,0.072913008,-0.14497945,-0.26352326,-0.28476696,-0.27884938,-0.21444185,-0.34421061,-0.34554546,-0.37116965,-0.34278735,-0.3505215,-0.37016156,-0.30696772,-0.38490446,-0.25400508,-0.24715784,-0.24239576,0.005415476,0.44592333,0.8598076,0.96468614,1.1107327,1.3382535,1.3624359,1.0846499,0.69462599,0.62817573,0.87725048,0.98686252,-0.74776669,1
-2.8298417,-2.6078412,-1.59047,-1.4328485,-0.90740693,-0.34334118,-0.2742102,-0.33746319,-0.28972987,-0.26348359,-0.24281035,-0.35147682,-0.35584412,-0.27536959,-0.33376488,-0.39835868,-0.30763987,-0.3882484,-0.43555952,-0.49315727,-0.4085218,-0.52425958,-0.59473034,-0.61963047,-0.77260096,-0.71880573,-0.8063276,-0.80327975,-0.84972443,-0.88965722,-0.92812846,-0.97274924,-0.8215676,-0.86917649,-0.86826136,-0.74547264,-0.67120354,-0.56784817,-0.43118294,-0.29759633,-0.15089597,-0.051988907,-0.068292199,-0.000217741,0.074934521,0.093631163,0.17261496,0.13865117,0.1029283,0.11842541,0.16764807,0.1295396,0.17964192,0.18350603,0.20416947,0.20655357,0.27444028,0.22254693,0.2151318,0.37622007,0.27725173,0.29189426,0.39994221,0.41027681,0.43835629,0.5017421,0.44797922,0.55220851,0.65381301,0.52664266,0.62853609,0.63978261,0.58699082,0.5557308,0.48680226,0.55880367,0.56217964,0.57116321,0.44714498,0.39270708,0.42174402,0.39770383,0.43383262,0.3704716,0.4201442,0.36516141,0.34576566,0.33462505,0.34516882,0.28763018,0.38106584,0.41055631,0.59500116,0.792741,0.91632271,1.0048723,1.2117053,1.5412605,1.6983291,1.7923553,1.7143693,1.6991493,1.4665503,1.2741001,1.0788426,0.74048002,0.43495844,0.086573678,-0.21526682,-0.32415729,-0.39168202,-0.411519,-0.35485887,-0.32783448,-0.28755758,-0.28999805,-0.26890641,-0.25965862,-0.22927963,-0.22972809,-0.34554047,-0.22295376,-0.24801677,-0.031624996,0.25898688,0.7832212,1.021723,0.90010575,1.2860751,1.4504048,1.35927,1.1540523,1.3038081,1.9004684,1.5312796,-0.35175882,-2.3013748,-4.0843864,-4.2522655,-3.9820532,1
-0.96644751,-2.8023405,-3.6997288,-4.1660627,-3.6006422,-2.6609465,-1.9587894,-1.748904,-1.1041614,-0.56707057,-0.46675724,-0.54987271,-0.64914165,-0.54115846,-0.54114396,-0.54236369,-0.58605335,-0.5564847,-0.4950254,-0.46107942,-0.61065502,-0.74946837,-0.68902907,-0.60970245,-0.67050844,-0.76177547,-0.86757982,-0.79185375,-0.73399694,-0.81812144,-0.87224643,-1.0096143,-0.96982138,-1.0217724,-0.91876528,-0.98217528,-0.98409353,-0.85699063,-0.8867802,-0.73947659,-0.72438005,-0.69814652,-0.65433229,-0.47167111,-0.34359873,-0.24495232,-0.078919197,-0.22280843,-0.12620208,-0.18791891,-0.23477089,-0.1205165,-0.049816174,0.028769671,0.098456353,-0.08652611,-0.029374972,0.011447539,0.013948999,0.071793491,0.086792153,0.12742341,0.18881756,0.19262752,0.23148815,0.33331092,0.27737292,0.40718994,0.48854422,0.50736202,0.52839974,0.53956314,0.53769113,0.56360725,0.56850854,0.59915285,0.55033489,0.54827477,0.5185618,0.59881341,0.53092429,0.49813562,0.57488705,0.48911416,0.60940918,0.56883609,0.41075884,0.51593543,0.54388615,0.40557059,0.46027969,0.55865679,0.48155951,0.3474646,0.42902042,0.47094468,0.52138635,0.68472544,0.79454275,1.0544416,1.3285267,1.3131084,1.4385935,1.7343764,1.8760536,1.83281,1.7458523,1.7375472,1.6801148,1.1799536,0.96131819,0.72346397,0.30649553,0.094436713,0.050150707,0.030636624,0.051782677,0.073731844,-0.070092791,-0.021960944,-0.011505293,-0.0599343,0.0180022,-0.07847972,0.17519701,0.17076755,0.074571414,0.030246412,0.17237958,0.31472298,1.0768353,1.435431,1.4753236,1.5830039,1.4168924,0.92524511,0.57507524,0.42545293,1.3025438,0.82513355,1
-0.85860522,-1.7980748,-2.8821729,-3.8263715,-4.773621,-4.7946474,-3.8947155,-2.3833403,-1.5315347,-1.3388358,-0.40862831,-0.10938497,-0.15300065,-0.15478688,-0.048917599,-0.091929084,-0.03897955,-0.056710537,-0.063819205,-0.06281021,-0.021149381,-0.089594729,-0.12908288,-0.091011422,-0.1529041,-0.16182055,-0.12578805,-0.19930699,-0.19998462,-0.25625302,-0.29071649,-0.3154247,-0.36278461,-0.36393106,-0.39224273,-0.41772489,-0.37941948,-0.36824727,-0.39756308,-0.43368856,-0.27070373,-0.31255051,-0.24559297,-0.038596356,-0.099967184,0.082304634,0.093357929,0.17402674,0.25380248,0.18781243,0.19146402,0.25202307,0.16380495,0.16541662,0.17784083,0.22558322,0.16390161,0.25939028,0.28374661,0.21709301,0.16296486,0.18947303,0.27181752,0.3437835,0.34313831,0.30019738,0.36956028,0.47583509,0.44354833,0.51495165,0.51831109,0.59999997,0.64112072,0.69949959,0.6863655,0.6718289,0.71407348,0.6463715,0.63661096,0.63830927,0.59904188,0.62295322,0.65547265,0.601361,0.50497098,0.52334015,0.47144385,0.48440561,0.36662267,0.4129181,0.3430859,0.22432983,0.29360781,0.28533002,0.30689815,0.27063704,0.2569449,0.40393959,0.30831267,0.34356316,0.39377024,0.48145959,0.64005557,0.65485051,0.91929377,1.1946289,1.1985018,1.1226144,0.71365679,0.55719392,0.47010781,0.53281686,0.56756305,0.36526107,0.19047278,-0.19617966,-0.20385639,-0.15497974,-0.28406772,-0.24222466,-0.29160891,-0.25973446,-0.26479653,-0.21744856,-0.14238151,-0.27091257,-0.28520872,-0.21916693,-0.11072477,0.073553082,0.81557641,1.7503049,1.898664,1.9715843,2.0498302,1.4582721,0.28431594,-0.63632144,-0.81067457,-1.365634,1
-0.95361914,-3.3805744,-4.1743705,-4.2772071,-3.5299598,-2.4526054,-1.7393632,-1.5318068,-0.62039985,-0.39916608,-0.39755804,-0.32329838,-0.41601684,-0.39660002,-0.40620123,-0.42525526,-0.47947741,-0.42894752,-0.43330594,-0.56468259,-0.42860701,-0.55423375,-0.47756317,-0.53969407,-0.66251813,-0.6139651,-0.6843831,-0.80760058,-0.80506855,-0.82848422,-0.81854306,-0.8882803,-0.96225551,-0.98932304,-0.98582223,-0.99474566,-1.0399809,-1.0478379,-1.034465,-0.8654771,-0.82937032,-0.72895843,-0.55300432,-0.47681225,-0.40133655,-0.44574351,-0.36625944,-0.36568827,-0.29921318,-0.13402609,-0.073864987,-0.023378885,-0.11063566,-0.03890364,-0.12568453,-0.048822817,-0.06310651,0.10186097,0.21983758,0.18164809,0.11014406,0.16491363,0.17082411,0.059989362,0.27013962,0.26780878,0.37518764,0.4135609,0.51902891,0.47334312,0.50104707,0.54710701,0.53823112,0.5324712,0.4938003,0.56262197,0.58200905,0.65126498,0.53148855,0.51524056,0.54861977,0.50101195,0.5106806,0.48090259,0.47017235,0.42481066,0.44744364,0.36750096,0.38849271,0.4399231,0.38776511,0.45481691,0.39722618,0.33751999,0.42838772,0.39151234,0.39779498,0.48327748,0.58966387,0.70075587,0.95633434,1.1233361,1.2457347,1.4071501,1.6099188,1.7982891,1.7824152,1.8430675,1.7298681,1.5053196,1.2829985,1.1732153,0.9235053,0.46383336,0.20290983,0.055564512,-0.002412049,0.062160791,0.018911959,-0.011756204,0.00143984,-0.0216576,0.052080048,0.017095973,0.039542358,0.012722963,-0.034851685,0.035123096,0.078899474,0.25717624,0.74416334,1.3774783,1.3718939,1.2782142,1.3235536,1.0890463,0.8795565,0.67464692,1.2590856,0.90665183,1
-0.12511139,-3.0090414,-3.9474829,-4.508115,-4.0628731,-2.9347028,-1.9479307,-1.6847942,-1.030268,-0.46904714,-0.44512999,-0.3122969,-0.37340633,-0.20501647,-0.22765791,-0.36058288,-0.2854991,-0.27191622,-0.35212968,-0.35976521,-0.25022984,-0.34170227,-0.36584836,-0.40222676,-0.34870281,-0.53318395,-0.55608694,-0.58622117,-0.58848253,-0.66998534,-0.73337722,-0.67250032,-0.76945173,-0.79634521,-0.83584497,-0.76207124,-0.81406725,-0.82295353,-0.73668447,-0.74148371,-0.6461923,-0.45084765,-0.39818658,-0.43024936,-0.28194131,-0.18433514,-0.1745802,-0.14060536,-0.055337704,-0.044982898,0.015033389,0.013533323,0.031803971,0.1477267,0.15929379,0.12894466,0.07338751,0.23854245,0.24901884,0.23195442,0.24490503,0.39476815,0.3033378,0.25220003,0.39848263,0.41657593,0.459212,0.56632886,0.63610628,0.56676881,0.5986293,0.5690514,0.50737422,0.5409636,0.5941996,0.5330194,0.52153007,0.53043968,0.4755545,0.39619435,0.35018307,0.43990814,0.37665646,0.37123854,0.37672763,0.36961381,0.39915469,0.32973,0.33266517,0.29650022,0.30536986,0.26292859,0.38034259,0.34675652,0.39865791,0.33063456,0.33350754,0.30745739,0.56821766,0.77183182,1.106514,1.3135109,1.5114852,1.7241079,1.9256638,2.1221908,2.0443348,1.9124593,1.6331118,1.4184261,1.1652574,0.77067918,0.30547664,-0.12511806,-0.30580247,-0.21361731,-0.18318357,-0.28582288,-0.26180043,-0.27592254,-0.30164929,-0.36610388,-0.28401921,-0.2812385,-0.34672377,-0.27451007,-0.29951893,-0.20345361,-0.15843391,-0.06918099,0.2953247,1.1365697,1.3100282,1.4435426,1.3364296,0.86858655,0.64464694,0.33799525,1.4010858,0.11318468,1
-0.67385174,-2.9420062,-4.0145432,-4.5513137,-4.1683405,-3.6020178,-2.5213087,-1.5089982,-1.256492,-0.84810529,-0.32764563,-0.21150417,-0.278024,-0.21719927,-0.28098178,-0.31010386,-0.27298463,-0.2539989,-0.29543524,-0.30939793,-0.25231833,-0.28419135,-0.29329905,-0.3330568,-0.36113797,-0.37361631,-0.45114808,-0.47274775,-0.42543786,-0.52976947,-0.61970166,-0.58948979,-0.611006,-0.63959355,-0.54248199,-0.66375172,-0.69769925,-0.57517391,-0.56832145,-0.63912253,-0.56099378,-0.48298149,-0.37805713,-0.30818821,-0.31739184,-0.14033347,-0.21783517,-0.056946149,0.03599544,0.060013437,0.12122457,0.084419912,0.11318226,0.045890328,0.094745922,0.1590912,0.1636915,0.17470535,0.17793507,0.15396575,0.10325508,0.09960788,0.13661904,0.18967344,0.22651984,0.29596087,0.27116938,0.21471706,0.28126707,0.3918702,0.48871641,0.49905576,0.5633337,0.55252443,0.56123665,0.63468916,0.61260724,0.5386372,0.64621155,0.60257846,0.56260583,0.44231189,0.49084107,0.48365213,0.49026443,0.47811391,0.45636091,0.42583917,0.38383319,0.36681379,0.46936933,0.47274939,0.43681656,0.4320139,0.57612549,0.64874425,0.82526512,1.0584562,1.0745041,1.2161942,1.3497271,1.5252311,1.7402832,1.6334686,1.5495119,1.499965,1.3539846,1.1662958,0.94998174,0.70010141,0.33104678,-0.042701847,-0.053910572,-0.10114026,-0.065110838,-0.079161794,-0.22400078,-0.10441036,-0.091176725,-0.13393249,-0.12905904,-0.066853735,-0.095423254,-0.083911693,-0.020008058,-0.081873046,-0.00610082,0.14574136,0.41979138,0.98448824,0.99639592,1.124032,1.2882671,1.1219714,1.0005611,0.64020657,0.81105534,0.96018625,0.19617627,-1.965636,1
-0.5849676,-1.6172649,-2.4382436,-3.226453,-3.8792214,-4.0921334,-3.0443069,-1.8066766,-1.4388969,-1.0598336,-0.28933753,-0.23851693,-0.19860672,-0.2606125,-0.29795921,-0.22500292,-0.22832648,-0.28014876,-0.26339567,-0.26704766,-0.34301245,-0.37780099,-0.27843551,-0.24304299,-0.28665226,-0.31722888,-0.34530495,-0.28579874,-0.28246529,-0.2529517,-0.23533363,-0.35090282,-0.25167708,-0.21841595,-0.26157404,-0.32279656,-0.27114574,-0.18537723,-0.22611111,-0.1323633,-0.078237766,-0.12161166,-0.16054164,-0.099063648,-0.018263878,-0.058725828,-0.005919502,-0.046366247,0.028369014,-0.044906952,0.062744656,0.039899255,0.06913884,0.04241019,0.017402876,0.048700595,-0.009138907,0.022889835,0.090961804,0.10884098,0.073484556,0.044803695,0.10050831,0.12995604,0.18774166,0.23030108,0.19537326,0.2330241,0.32193887,0.38505657,0.35051834,0.32951363,0.4409511,0.50298654,0.50281233,0.5521508,0.68566804,0.51672747,0.56127751,0.54251441,0.5213426,0.50341317,0.55094283,0.542467,0.50280977,0.46357305,0.48373565,0.41314771,0.48133976,0.49437689,0.49912001,0.33180595,0.29787436,0.37782183,0.31554034,0.32586356,0.41512301,0.43643227,0.49862313,0.66415747,0.9023861,0.95125642,1.2701765,1.6757273,2.034006,2.2320614,2.23927,2.3184838,1.9424763,1.7731897,1.6395935,1.2642288,0.81879833,0.35476279,0.063751131,-0.15439897,-0.19912474,-0.18645023,-0.21148411,-0.19998108,-0.10764259,-0.15588042,-0.16681954,-0.097300855,-0.099292818,-0.1006456,-0.15939682,-0.11660437,-0.077684094,0.031936241,0.37026929,1.3801073,1.9103124,1.1760212,0.054170173,-1.3103826,-2.1689105,-2.3409272,-1.9881077,-1.2520075,1
1.5619952,1.5958143,-0.11082959,-2.0508204,-3.1458883,-3.9935045,-3.5350864,-2.434812,-1.743578,-1.648329,-0.56064941,-0.054869179,-0.2567853,-0.21212127,-0.23976729,-0.17064618,-0.28706147,-0.18061088,-0.31276288,-0.23825327,-0.38033832,-0.34873152,-0.48206517,-0.51061574,-0.49314773,-0.51475986,-0.61885584,-0.60233247,-0.70308148,-0.7185103,-0.7709149,-0.89638682,-0.98573787,-0.98517158,-1.0896949,-1.1245911,-1.0558505,-1.2527006,-1.111206,-1.111699,-1.1362662,-1.1218531,-0.98209642,-0.90683677,-0.85259808,-0.66001759,-0.59973929,-0.46148507,-0.33230272,-0.31324435,-0.35905733,-0.20649319,-0.17325633,-0.11730804,-0.030277077,-0.061222833,0.000103802,-0.050145907,0.050743452,0.054553058,-0.036322652,0.085902989,0.095133837,0.11229357,0.079557038,0.11393452,0.1989753,0.10839059,0.27362409,0.26716057,0.26391942,0.25000625,0.22413659,0.36046859,0.3973149,0.40145966,0.47054872,0.58665297,0.46018557,0.53069127,0.50155319,0.52327055,0.42039226,0.39261475,0.437425,0.37599596,0.4088374,0.45031458,0.29198662,0.34716597,0.33252989,0.34107699,0.14329393,0.20159026,0.29139694,0.18992529,0.16714021,0.18075825,0.34271831,0.37329448,0.52668182,0.81035446,1.1808434,1.1159824,1.1313393,1.3804283,1.8440764,2.0137613,1.9478261,1.9576461,1.7321706,1.4957818,1.3194798,0.88852658,0.56491664,0.094792014,-0.17789327,-0.36015439,-0.30665971,-0.25438816,-0.24743138,-0.25479749,-0.2844025,-0.24091132,-0.19005357,-0.14821982,-0.2696157,-0.19662347,-0.16681135,-0.078292955,0.009064972,0.28996986,0.83820954,0.96750032,1.5285564,2.1390491,2.4359137,2.0679058,1.2755414,1.6963796,1
-0.50206042,-2.5728244,-3.6323332,-4.2805287,-4.0847925,-3.6282551,-2.6008236,-1.6932949,-1.5023735,-1.0268627,-0.45757949,-0.39095755,-0.32748118,-0.31037181,-0.36171973,-0.25001304,-0.28006335,-0.33426669,-0.28606268,-0.24021453,-0.30791705,-0.32559417,-0.35017824,-0.31205458,-0.36165827,-0.40082498,-0.37292181,-0.4075513,-0.38659986,-0.43383714,-0.51379208,-0.52581738,-0.62935306,-0.57874131,-0.63758121,-0.62942778,-0.60664327,-0.62754444,-0.64084481,-0.6517324,-0.65475811,-0.48236769,-0.52576945,-0.45918303,-0.39148114,-0.40033775,-0.25592047,-0.17239703,-0.13415025,-0.077612539,-0.11003747,-0.029305305,-0.030814068,-0.00728933,0.044412649,0.035683291,-0.002515159,0.073873023,0.083607086,0.043755141,0.065329327,0.14958071,0.087902225,0.12030357,0.14315084,0.20093846,0.16216821,0.24479908,0.30860514,0.28355444,0.29387866,0.33525439,0.37903841,0.47139642,0.41916282,0.52742689,0.63879777,0.58658057,0.59321554,0.63037636,0.63172895,0.62616775,0.53075323,0.56898091,0.4653705,0.44274422,0.47117798,0.40474994,0.39384996,0.45257434,0.39891967,0.4387427,0.48793582,0.56883848,0.66844081,0.84534373,0.97626481,1.0998232,1.2946811,1.4330596,1.628943,1.8687739,1.8006359,1.7255756,1.6410651,1.3970635,1.3063827,1.1246461,0.88578444,0.6446085,0.14614428,-0.075189962,-0.1219358,-0.2015427,-0.19055291,-0.22758736,-0.25040523,-0.14199399,-0.1937872,-0.2034749,-0.16202008,-0.20782296,-0.14087102,-0.14623775,-0.088301739,-0.12397259,-0.055216386,0.1447113,0.50197642,0.92021216,1.0172961,1.1926539,1.3337871,1.3588002,1.2882065,1.0182582,1.0741765,1.2607647,0.7005665,-1.375626,1
-0.14057152,-1.9219161,-3.3579518,-4.2885992,-4.2950798,-3.9601651,-2.8822607,-1.7183936,-1.5304759,-0.90525595,-0.25352657,-0.14320464,-0.12181549,-0.098969206,-0.10313122,-0.1006595,-0.11600941,-0.075155954,-0.11425322,-0.075560547,-0.15538024,-0.19322496,-0.25491891,-0.37729278,-0.36840099,-0.30808626,-0.31377514,-0.44256447,-0.53567505,-0.56535014,-0.59434863,-0.59762461,-0.62377442,-0.69402704,-0.72845838,-0.6576471,-0.70822407,-0.75318092,-0.77425858,-0.69237971,-0.62497145,-0.63972893,-0.52753102,-0.4804279,-0.39040227,-0.16804222,-0.13359377,-0.13910402,-0.022431183,-0.083820144,0.030154126,0.084219336,0.053040988,0.086505871,0.076819624,0.14066856,0.16108598,0.08552768,0.094306519,0.14794436,0.17957259,0.14276754,0.032490284,0.12579967,0.14973304,0.21013608,0.16067892,0.18924135,0.35140961,0.25339374,0.29714415,0.32159509,0.32566483,0.44437345,0.41806112,0.46350821,0.50842411,0.60742538,0.64555635,0.61426389,0.52460211,0.49669532,0.45911978,0.48909715,0.48912322,0.39418061,0.42781337,0.46517184,0.4519728,0.41243189,0.38415402,0.4712445,0.63723058,0.66994474,0.8538631,0.95958066,1.034961,1.2244042,1.3142025,1.5784721,1.7344065,1.7401886,1.6897222,1.5260893,1.4576695,1.3291723,1.139683,1.0320571,0.8016459,0.45935239,0.16456756,0.018977716,-0.046160998,-0.24924402,-0.07559172,-0.085331046,-0.13985477,-0.13368325,-0.16567787,-0.22028112,-0.10872741,-0.16471879,-0.077473797,-0.048303164,-0.044002768,-0.083667512,-0.048945352,0.41524307,0.94347859,0.85767342,0.98084915,1.125828,1.1561444,1.062551,0.92541301,0.84560452,1.0254614,0.74936778,-0.37991797,-2.4977422,1
2.9368236,0.35368708,-1.6811287,-3.1617203,-3.7840359,-3.6993211,-2.8557827,-1.6109626,-1.2010223,-1.0221041,0.035481864,0.22861129,0.27532186,0.17635695,0.26831429,0.24815512,0.027349586,0.073455158,-0.089728845,0.05208383,0.015625868,-0.093928388,-0.16850199,-0.1768136,-0.28953026,-0.3665037,-0.38808018,-0.43248869,-0.60246232,-0.61495548,-0.68693239,-0.72412267,-0.81820148,-0.84470536,-0.98157708,-0.97622703,-1.0616733,-0.97383259,-1.0375042,-1.1214293,-1.0380126,-0.91886382,-0.96756051,-0.89771792,-0.68994124,-0.66796668,-0.68524464,-0.54089657,-0.49048606,-0.39053747,-0.38877964,-0.38842974,-0.40636123,-0.37316716,-0.30696717,-0.19173166,-0.25964426,-0.2236039,-0.1521785,0.012529108,-0.10482381,-0.19552128,-0.030662202,0.03692408,-0.067917173,-0.078206238,0.071214227,0.019862679,0.13691693,0.12972389,0.14760817,0.18577599,0.26783157,0.3547405,0.28639746,0.2669931,0.24909707,0.3293985,0.3091171,0.26002856,0.3680782,0.37553381,0.33795515,0.19921921,0.24470208,0.18315779,0.18544104,0.17770957,0.15704366,0.13226423,0.012340864,0.030387905,0.17678982,0.047906971,0.12948771,0.13230005,0.18902064,0.27565077,0.2766331,0.65094091,0.861957,1.0929867,1.376945,1.8100725,2.2426208,2.4690258,2.7468638,2.4378712,2.1331271,1.9001322,1.5419238,1.0224452,0.44374957,0.099601894,-0.14361414,-0.35067332,-0.34820862,-0.24550484,-0.33342743,-0.29349523,-0.30484389,-0.28357733,-0.16142651,-0.16923918,-0.11154335,-0.14813789,0.048874109,0.047569859,0.077797248,0.39036562,1.217207,1.5536121,1.3033217,1.0061286,0.63534249,0.32604123,0.57928179,0.72573999,2.0429224,0.64267429,1
-0.99438784,-2.0253385,-2.5979313,-3.1055486,-3.7173198,-3.5155832,-2.7452947,-1.9364043,-1.5636928,-1.2142762,-0.67327122,-0.73285547,-0.69282988,-0.68685265,-0.68344907,-0.71941556,-0.73416621,-0.7468217,-0.70277316,-0.67391346,-0.6674104,-0.67102725,-0.65650372,-0.57976323,-0.62305357,-0.66808913,-0.63100486,-0.58273634,-0.56198471,-0.48249409,-0.5013759,-0.54577986,-0.5316726,-0.50801607,-0.46093348,-0.45553448,-0.45259659,-0.43323396,-0.42826157,-0.39348889,-0.4137751,-0.42237786,-0.40612444,-0.34222071,-0.23670819,-0.37742445,-0.31220219,-0.27086173,-0.24188021,-0.18577605,-0.18802074,-0.15783782,-0.11339634,-0.15061514,-0.16522868,-0.17057714,-0.0146922,-0.08774682,-0.03099133,-0.16103165,-0.044426353,-0.0165899,-0.12356552,-0.001649409,0.005175058,0.051994047,0.004674964,0.027082217,0.15806897,0.18577748,0.24217961,0.24798119,0.22930703,0.31251241,0.33601714,0.40525193,0.34107732,0.43216284,0.46778163,0.48844655,0.45439689,0.49388483,0.58916747,0.55155369,0.51722317,0.49451607,0.45497301,0.51402525,0.48913521,0.53538403,0.54938137,0.57508519,0.57124342,0.55454629,0.56044849,0.56519862,0.57839619,0.67018629,0.87513386,1.0889885,1.2285188,1.398088,1.7092265,1.9636405,2.0353469,2.0583088,1.9882167,1.8976681,1.7603106,1.700051,1.4503493,1.1692367,0.87966376,0.4656394,0.41218146,0.30718594,0.25690546,0.27164383,0.25458578,0.32910088,0.33818185,0.36745357,0.27907844,0.36238357,0.39546863,0.38981556,0.45177743,0.42157084,0.57100071,0.89448039,1.6678808,2.2183837,1.7072345,0.98251902,-0.053986002,-0.8864749,-1.1574322,-1.2455447,-0.62410749,-0.30110375,1
0.31921982,-1.274314,-2.3964388,-3.6029332,-4.203826,-3.9135511,-2.9035374,-1.7894973,-1.5692263,-1.0961661,-0.47563105,-0.53123812,-0.46257554,-0.53980261,-0.55868073,-0.53824042,-0.51843762,-0.47231405,-0.49888545,-0.46945057,-0.43507129,-0.63611588,-0.48332597,-0.51716992,-0.56347081,-0.60026461,-0.69951979,-0.67206738,-0.72938367,-0.67295202,-0.70956497,-0.82431934,-0.8518211,-0.87300797,-0.87504999,-0.96132185,-0.92708221,-0.82000774,-0.8108847,-0.72312974,-0.64923768,-0.7194207,-0.61573729,-0.47081873,-0.3903128,-0.26443416,-0.28599601,-0.1711193,-0.18740778,0.0203419,-0.011229521,-0.008316287,-0.019442572,-0.12867361,0.004827645,-0.01952493,-0.081139263,0.055487413,0.020253524,0.041717885,-0.024786085,0.07705223,0.050654333,0.14481927,0.21558034,0.13948004,0.20369741,0.26630821,0.32530313,0.36385835,0.48445604,0.54432366,0.59785617,0.54014009,0.48464186,0.57860252,0.60016801,0.59860353,0.57358114,0.49741483,0.51236792,0.65814639,0.52644032,0.50738468,0.55844332,0.58299274,0.44808331,0.38848628,0.49462519,0.49276355,0.43504272,0.4232881,0.44833184,0.41158453,0.45871169,0.6201574,0.79049909,0.9280437,1.174215,1.2952329,1.3644999,1.7329978,1.9907678,2.1793389,2.0092669,2.0401782,1.989643,1.6308293,1.448843,1.2336439,0.99008093,0.67541398,0.22113479,-0.10625726,-0.10795998,-0.063555038,-0.27673207,-0.16038518,-0.11711411,-0.1310479,-0.11802747,-0.065602642,-0.043439906,-0.12345612,-0.21253416,-0.073422335,-0.071887118,-0.017451453,0.29362606,0.75691584,1.5612639,1.4379579,1.1034588,0.88569854,0.42897268,0.013260846,0.047614797,0.55036011,1.1888648,0.25888403,1
-0.7954576,-1.7353452,-2.32797,-2.6256274,-3.2072989,-3.5878451,-3.5163133,-2.9865083,-1.8271417,-1.2050604,-1.1337098,-0.58466805,-0.19149447,-0.20953436,-0.16287042,-0.19934749,-0.19756791,-0.16064891,-0.24012281,-0.23832799,-0.14971148,-0.12743683,-0.10563915,-0.1491287,-0.22245228,-0.21570427,-0.18796409,-0.12326238,-0.086639831,-0.083650279,-0.17612568,-0.1733417,-0.093563337,-0.19066612,-0.1342469,-0.038150856,-0.14329773,-0.046281837,-0.04681351,-0.10664398,-0.11944725,-0.16505527,-0.093002663,0.09416218,0.11187145,0.02357343,-0.023659121,0.10771836,0.22453073,0.2770782,0.11244013,0.15325185,0.15223326,0.10655725,0.097607929,0.11235583,0.045259005,-0.044839221,-0.12461646,-0.095922938,-0.017010262,0.070324931,0.082405747,0.027038424,-0.027833698,-0.00738074,-0.062997267,0.093147526,0.06470481,-0.023773748,0.09769613,0.16427615,0.12011022,0.18662601,0.33459771,0.29057695,0.29666848,0.36822044,0.40511964,0.49016427,0.45839904,0.46714337,0.60446997,0.3970547,0.49711217,0.59011162,0.64248785,0.59727051,0.57209895,0.61110412,0.61449063,0.67854384,0.90766808,1.0551641,1.1211277,1.3791535,1.5606402,1.9311772,2.218305,2.3573202,2.4832358,2.3522043,2.0035917,1.8406771,1.7123166,1.4750178,1.1719824,0.87813732,0.51254563,0.23288421,-0.022992246,-0.21726063,-0.1136286,-0.15184474,-0.33851219,-0.26276691,-0.31587355,-0.2046246,-0.29137268,-0.27785877,-0.25414463,-0.25336999,-0.22189473,-0.29367274,-0.21612334,-0.18606905,-0.015986555,0.42099934,1.1637247,1.4604522,1.0722181,0.47879512,-0.38104613,-1.1064497,-1.5120187,-1.5767212,-1.2855829,-0.69848244,-0.71138521,-1.7811402,1
-1.7264807,-3.9534327,-4.2277248,-4.5562783,-4.2570187,-3.3927017,-1.8310729,-1.1945735,-1.0253428,-0.24140624,0.031924065,-0.093060662,-0.11676814,0.015980509,0.097910641,0.12499052,0.05068359,-0.060796767,0.003267777,-0.061282884,-0.046337756,-0.13421046,-0.16695643,-0.095627011,-0.11176683,-0.20169537,-0.1473542,-0.26908709,-0.34932427,-0.32472301,-0.36444121,-0.32285182,-0.48276779,-0.52832141,-0.54790818,-0.44296792,-0.53148528,-0.5618417,-0.49423154,-0.44192942,-0.22005975,-0.40961608,-0.33189459,-0.24043193,-0.19479507,-0.035648017,0.035355173,0.046260726,-0.02968818,0.045446154,0.093238476,-0.000373576,-0.065412827,-0.10031832,0.10085475,0.10514333,0.04282042,0.15573512,0.1078535,0.005342644,0.078381575,0.17165172,0.17482682,0.16793255,0.1292107,0.21153506,0.14177605,0.16148039,0.27601383,0.22815944,0.26548631,0.2579431,0.35808266,0.44954,0.42588184,0.36379037,0.37500205,0.36834564,0.30382656,0.32616701,0.20454977,0.20857238,0.34222774,0.27491303,0.31450397,0.3317187,0.2455938,0.26641878,0.26855406,0.1651931,0.18777389,0.13950802,0.17451796,0.14300228,0.23919847,0.46015992,0.49425073,0.75920941,1.0466238,1.2207197,1.4471091,1.4989702,1.8333288,1.8518247,1.7647636,1.8154404,1.5718765,1.469609,1.2355521,0.99016185,0.84164074,0.2034816,-0.007785419,-0.1648358,-0.37617047,-0.32112977,-0.33795602,-0.1505987,-0.33048963,-0.32575988,-0.25293387,-0.27127268,-0.24675922,-0.2676818,-0.31841147,-0.44640066,-0.30503875,-0.27529394,0.007926301,0.30533169,0.82043904,1.081326,1.2459612,1.2801134,1.36839,1.0336884,0.74395889,0.5744582,0.97388771,-0.41376414,1
-0.86460017,-2.3635048,-3.5085796,-4.0217103,-3.9218376,-3.4727953,-2.5503888,-1.5194247,-1.4232565,-0.94360386,-0.40329358,-0.614046,-0.64844945,-0.53173098,-0.62995141,-0.53193663,-0.49603697,-0.40087732,-0.48628301,-0.5839806,-0.58416288,-0.62767196,-0.39483016,-0.5323846,-0.53826333,-0.55813331,-0.62996795,-0.48395454,-0.62358718,-0.47148572,-0.48477866,-0.51649165,-0.5011151,-0.61305448,-0.53525788,-0.55526414,-0.69101374,-0.48289531,-0.45153085,-0.51412349,-0.38346657,-0.33447638,-0.18635283,-0.27463367,-0.31067557,-0.22083023,-0.11993551,-0.039014626,-0.12218846,-0.10358174,-0.12234551,0.081200887,0.05628706,-0.005051707,-0.020094681,-0.03773873,0.11967746,0.054154313,0.040713546,0.20763217,0.18615163,0.061644235,0.14859517,0.19394851,0.1903986,0.19611275,0.22089541,0.38592677,0.43200716,0.41298624,0.5417996,0.46184017,0.45369773,0.44583956,0.48913257,0.51554414,0.39673108,0.56289518,0.61704798,0.70331556,0.76743499,0.71358481,0.59375455,0.55260895,0.63241848,0.5273225,0.62551589,0.66892565,0.5747848,0.53052967,0.62389147,0.53081189,0.51240431,0.52311026,0.39808495,0.48907028,0.58861354,0.70808216,1.0846915,1.3267878,1.4200211,1.5734257,1.8792967,2.1762704,2.4136188,2.2060695,2.0161933,1.6282859,1.5680433,1.3560129,1.0442445,0.79151772,0.60654512,0.25669727,0.01853024,-0.012831741,0.061774233,0.057249288,0.037699491,0.10532531,-0.076876074,-0.017311169,-0.054088492,-0.015146001,0.10451698,0.059824381,-0.029139533,-0.024146343,-0.025642752,0.21058097,0.53662402,1.1811356,1.117366,0.74503826,-0.040900456,-0.7873207,-0.96617563,-0.96807241,-0.29101069,-0.025207993,1
1.640028,0.010177914,-1.5685823,-2.8339329,-3.8753343,-3.5966152,-2.6088489,-1.8951469,-1.7863742,-0.84856687,-0.26319025,-0.31222667,-0.32559601,-0.40285948,-0.40245368,-0.43691614,-0.36870735,-0.3755773,-0.36433799,-0.44148336,-0.41408137,-0.51408759,-0.56620889,-0.47994463,-0.5215563,-0.57635654,-0.64017024,-0.68199326,-0.75941334,-0.8586129,-0.91101569,-0.94707353,-0.98294971,-1.0411,-1.0903122,-1.2907013,-1.1715357,-1.2405469,-1.1360415,-1.2021632,-1.1094364,-1.0470333,-1.0379141,-0.92504532,-0.69714064,-0.66964981,-0.5443175,-0.42380008,-0.29690104,-0.18933975,-0.25993411,-0.12702429,-0.094138703,-0.037978603,0.028254386,0.012116047,0.062430819,0.052624591,-0.002407481,0.1538084,0.17572369,0.17811029,0.090664155,0.11979282,0.25600842,0.20547831,0.24188185,0.29049854,0.32532846,0.38326698,0.34567179,0.41971601,0.58434562,0.51208052,0.58437707,0.64774494,0.62592906,0.6861537,0.59203705,0.61164236,0.66862975,0.66942184,0.54169104,0.58826849,0.65414184,0.60426423,0.54902418,0.4869458,0.52406952,0.44660514,0.5164119,0.4837811,0.52030054,0.42694826,0.35295302,0.36856425,0.34651792,0.36353996,0.44492225,0.48156159,0.67823983,0.96407077,1.1352416,1.3409948,1.3765514,1.672178,2.02073,2.160978,2.1043175,1.9253721,1.7718655,1.6638327,1.3304331,0.98883286,0.47220857,0.03304789,-0.35055773,-0.35839371,-0.33865107,-0.23666522,-0.301861,-0.36094914,-0.26256935,-0.24410672,-0.2423854,-0.21758968,-0.30684771,-0.30323592,-0.25522684,-0.30905389,-0.25869707,-0.06323035,0.51915041,0.78853988,1.0453679,1.712006,1.9273181,1.9804026,1.2653147,0.85324761,1
0.014956757,-1.7728402,-3.3150159,-4.096364,-3.8511889,-3.2543929,-2.4487493,-2.0676541,-1.8707768,-1.1283462,-0.8733666,-0.95274946,-0.9007459,-0.87822607,-0.80972728,-0.77724234,-0.74842892,-0.74819793,-0.72457158,-0.78678462,-0.80315399,-0.74692273,-0.81347012,-0.80380328,-0.81960235,-0.8868384,-0.85786743,-0.86647268,-0.85386811,-0.82529992,-0.9454211,-0.91519652,-0.95113806,-0.94397217,-0.95931799,-0.90747134,-0.85496251,-0.84569029,-0.74483637,-0.65276034,-0.62087302,-0.46800571,-0.38055241,-0.36080569,-0.25768336,-0.12729264,-0.070243811,0.045251669,0.066707152,0.066885655,0.17445361,0.14760234,0.21575414,0.22289633,0.25513448,0.22723309,0.24482422,0.33460896,0.34692199,0.32672481,0.31481202,0.45815524,0.43124461,0.46359449,0.48321118,0.49245539,0.54657372,0.52072463,0.56572084,0.62607135,0.61821858,0.61666954,0.65399609,0.66028565,0.59122788,0.65550947,0.59736323,0.67297226,0.58287465,0.53313686,0.60289255,0.57060427,0.52352285,0.56406545,0.5583086,0.52131367,0.43275027,0.53093183,0.47569231,0.47645713,0.52238995,0.46377306,0.48876897,0.38949812,0.415426,0.50406578,0.59161821,0.70724263,0.82608769,0.96590904,1.0513268,1.2583497,1.4563608,1.5620587,1.5587123,1.4921897,1.4901654,1.2754991,1.1255207,1.030578,0.82839465,0.58274875,0.2416359,0.12191845,0.053063123,-0.013014295,-0.025765744,0.02700255,0.06783205,0.049276058,0.049186932,0.049104682,0.005875895,-0.019322045,-0.0370717,0.068657862,0.022145961,0.085342069,0.13388732,0.20853569,0.70059748,0.82263274,0.7458839,0.86567427,0.93642456,0.95348201,1.0641914,1.3293661,1.9902567,1.1740957,1
-1.980723,-3.2277693,-3.3764266,-4.0932866,-4.036557,-3.5950093,-2.1359159,-1.4392524,-1.2588879,-0.74045252,-0.24581444,-0.31251863,-0.21878824,-0.2477475,-0.26340812,0.049111775,-0.09118237,-0.20286302,-0.16511624,-0.23325688,-0.29718564,-0.20496064,-0.28876456,-0.27977344,-0.25546052,-0.27293559,-0.28889368,-0.40496257,-0.4654744,-0.46642024,-0.48121308,-0.5178573,-0.51289678,-0.61004586,-0.62811424,-0.7323891,-0.67159054,-0.5257518,-0.61097765,-0.48673477,-0.49981414,-0.2850094,-0.17197631,-0.2248833,-0.10133918,-0.11324483,-0.044216571,0.04238237,0.064279633,0.16333977,0.086020446,0.04034873,0.16823992,0.062387487,0.093485931,0.065981967,0.00769418,0.11401995,0.071035204,0.057436509,0.14122982,0.19892589,0.060759103,0.10047442,0.069864329,0.12724088,0.13168976,0.081830602,0.28982756,0.35762935,0.27303901,0.34417284,0.42058083,0.39738968,0.61476077,0.52836073,0.58962695,0.63254195,0.64831309,0.59104753,0.53267771,0.60340643,0.52686356,0.57696304,0.56714691,0.53059515,0.43756443,0.50917153,0.4549095,0.4986655,0.42624098,0.45706723,0.51178935,0.55488717,0.69354285,0.97782324,1.0296735,1.1939303,1.3141871,1.5217274,1.8550521,1.9765974,2.0568177,1.9529565,1.9843981,1.7223815,1.4734593,1.216459,1.0735548,0.82581091,0.61945694,0.27016708,-0.028249023,-0.10658263,-0.19204887,-0.15527983,-0.27879785,-0.28631372,-0.15815007,-0.17576262,-0.28727975,-0.15911609,-0.16548399,-0.2390544,-0.174895,-0.19157237,-0.17095545,-0.16235636,0.12729763,0.70893586,1.4572223,1.552411,1.1390751,0.66237154,0.20557577,-0.14820622,-0.52320186,-0.88693538,-0.63928531,-1.0465133,1
-1.6634883,-3.260267,-4.0240706,-4.4700447,-4.1628176,-3.5507235,-2.2475389,-1.2851141,-1.0909247,-0.51924359,0.10817997,0.057385731,0.043811309,0.14908993,-0.026944433,0.029383624,0.1006895,0.046372308,0.11245809,0.067677768,0.14262381,0.086575723,-0.032681424,-0.048118779,-0.033181444,0.059187625,-0.06087417,-0.085878516,-0.087701393,-0.18808509,-0.21277135,-0.22015547,-0.15445366,-0.24151675,-0.34014223,-0.29473849,-0.26943468,-0.22304114,-0.31543196,-0.29039749,-0.23189099,-0.22333421,-0.17267575,-0.096969081,0.03357313,0.088177502,0.075371021,0.16078181,0.17593839,0.2045327,0.21506901,0.15063808,0.1971383,0.11600599,0.22281291,0.21865238,0.1014292,0.17074557,0.19794083,0.18151231,0.21771754,0.029147106,0.12198327,0.2322439,0.14518869,0.089603106,0.22375586,0.26228296,0.21963547,0.23042093,0.3143628,0.41197012,0.40177439,0.47016549,0.4529598,0.47497614,0.57837034,0.44876275,0.53245978,0.59323292,0.54929538,0.52339802,0.51463009,0.48548254,0.50020743,0.48975392,0.55732369,0.51343045,0.50198723,0.51951195,0.48874039,0.56144077,0.75027092,0.75174179,0.88882923,1.0784052,1.1915487,1.4572949,1.6877495,1.8744508,1.8956255,1.8336326,1.680574,1.6148764,1.4342662,1.2567873,0.99316809,0.68662632,0.28577224,-0.052204674,-0.34435811,-0.43264332,-0.44008414,-0.53284816,-0.57132522,-0.61284141,-0.57005332,-0.52880032,-0.57009666,-0.43742415,-0.60779493,-0.54143542,-0.44746876,-0.62304385,-0.50397813,-0.43858485,-0.34274083,-0.059363826,0.47783133,0.61654009,0.54230246,0.51606884,0.33038141,0.35983537,0.30314785,0.29045717,0.62855483,0.36295427,-0.60803044,-2.5698912,1
4.9664142,3.3511363,0.7989476,-0.49068275,-1.687233,-1.9041027,-0.67408344,0.15200351,0.25706222,1.2568918,1.6367886,1.5647652,1.6279609,1.6026766,1.4858976,1.3560224,1.3872184,1.3758372,1.2667592,1.1290775,1.1883768,1.1194515,0.89245814,0.83860182,0.78381528,0.68278168,0.65563434,0.66464384,0.48437933,0.36990002,0.19095165,0.086331739,0.12155049,0.033626888,-0.091407279,-0.035837421,-0.27036489,-0.35306197,-0.29347259,-0.27909586,-0.18206198,-0.05327713,0.021896276,0.027994232,0.060292058,0.14673246,0.27354593,0.28997886,0.29309286,0.41278978,0.34881956,0.31224541,0.38505129,0.24731098,0.35375354,0.35603061,0.26154425,0.27827082,0.27285119,0.17720636,0.26129814,0.20580143,0.13652298,0.25962991,0.18204682,0.2026921,0.21104146,0.15536221,0.19920537,0.1732771,0.19412741,0.23492516,0.11949256,0.13116527,0.16174632,0.029107722,0.10117499,0.17656151,0.017433165,-0.057572119,-0.021410875,-0.079983295,-0.13573346,-0.19220916,-0.24613039,-0.18662873,-0.22476572,-0.26509728,-0.4197767,-0.58678131,-0.40700811,-0.44442406,-0.51323461,-0.52210776,-0.54126755,-0.65050535,-0.6936606,-0.75601389,-0.76269865,-0.630689,-0.47536453,-0.20319269,0.022005285,0.30933035,0.36279697,0.50242868,1.0760793,1.1625681,1.2000333,0.95999286,0.65280151,0.52428072,0.20485851,-0.26537417,-0.8200146,-1.4007,-1.5693056,-1.6627996,-1.823595,-1.6685557,-1.6203364,-1.7636373,-1.7193352,-1.7174169,-1.7486898,-1.887436,-1.8342613,-1.8017254,-1.7843817,-1.8537283,-1.6931707,-1.5849772,-0.96367702,-0.7740173,-0.30036192,0.10094948,0.19885182,-0.090625241,-0.41672384,-0.18117474,1
-0.017883734,-1.8709912,-3.5993144,-4.400226,-3.9336084,-3.0807643,-2.1125591,-1.7599354,-1.4769319,-0.71515265,-0.45464363,-0.48507555,-0.54333186,-0.49921203,-0.43344065,-0.4617937,-0.49004217,-0.57730164,-0.46051996,-0.53989117,-0.51623848,-0.51616777,-0.57930273,-0.58846214,-0.59404058,-0.69835422,-0.66560518,-0.6950545,-0.72635954,-0.76873682,-0.76728434,-0.8480902,-0.90398235,-0.99801703,-0.96578243,-0.99213223,-0.93342878,-0.96667163,-0.81843447,-0.73171668,-0.78755717,-0.66762866,-0.57589604,-0.59335284,-0.48685845,-0.37226344,-0.30460012,-0.23896828,-0.23637007,-0.1707479,-0.14662143,-0.14606697,-0.10737744,-0.09096071,-0.047103749,-0.044838434,-0.000761453,0.019957104,-0.023245139,0.043880156,0.017991088,0.007695368,0.044391695,0.0534588,0.13948597,0.21935181,0.20754058,0.24308374,0.2922306,0.34474634,0.49707968,0.59304067,0.5614629,0.63915576,0.63259014,0.68225253,0.73738434,0.69251419,0.66871392,0.69243379,0.55320504,0.61497183,0.56592182,0.58698271,0.5140009,0.48885641,0.50415763,0.4771587,0.46990093,0.49318492,0.46886766,0.39286689,0.34392637,0.46129979,0.45253458,0.45793148,0.51355569,0.61996261,0.86391494,1.0018419,1.0665211,1.1412635,1.3351507,1.505398,1.4651482,1.3519729,1.298032,1.1813777,1.0295821,0.8774168,0.77123486,0.65574352,0.3581532,0.11026454,0.055325244,-0.001782815,0.018645034,0.012053039,-0.020391674,-0.073562095,-0.055324632,-0.06305577,0.01028475,-0.015766321,-0.015382562,0.062501273,0.08114243,0.087161133,0.20416432,0.50641366,1.1287051,1.3964561,1.6663221,2.1116296,2.1842663,1.7371936,1.2713951,1.1109609,1.395715,0.40988774,1
-0.37811803,-2.565952,-3.8928318,-4.510396,-3.8493064,-3.3501985,-2.2563701,-1.3547429,-1.3269506,-0.72793774,-0.28582606,-0.25329633,-0.19428229,-0.27658818,-0.29328584,-0.37480572,-0.34291265,-0.24739892,-0.31187938,-0.27859436,-0.23507666,-0.37880727,-0.29408235,-0.36326867,-0.39415777,-0.23502919,-0.39043652,-0.54365958,-0.52078783,-0.49125952,-0.56542803,-0.40478769,-0.55207075,-0.73810342,-0.70480191,-0.78432281,-0.62974476,-0.64235142,-0.6149284,-0.63556588,-0.73447856,-0.45917058,-0.3430083,-0.68971116,-0.54841913,-0.38086522,-0.14773166,0.008376263,-0.11886421,-0.014338148,-0.051181502,-0.050746994,0.015470651,-0.17451131,-0.11973098,0.21616472,-0.034227192,-0.084733492,0.003607114,0.047749788,0.076744929,0.21612033,0.21580949,0.26108023,0.44141158,0.29325269,0.25764353,0.44999303,0.51692922,0.36732446,0.35759229,0.38807168,0.46605299,0.66079514,0.4447931,0.579256,0.60573535,0.48636844,0.56342112,0.7218417,0.87976308,0.55594066,0.46007952,0.51553572,0.5022265,0.51911678,0.37258387,0.3370041,0.36835207,0.40232609,0.23622926,0.14839806,0.29495569,0.27115203,0.39444985,0.62396163,0.63490554,0.80017939,0.73348756,0.85617744,1.3823589,1.6780685,1.7405308,1.6392255,1.6521194,1.5841059,1.5417837,1.2825259,1.0092137,0.79011428,0.4248886,0.19721466,-0.008536467,-0.2712196,-0.42759357,-0.084186188,-0.35706165,-0.57105578,-0.085193335,-0.16141018,-0.38398348,-0.49496007,-0.26173623,-0.23257507,-0.52529863,-0.43768622,-0.14060308,-0.19651227,-0.082344591,0.56885717,1.2595614,1.2292852,1.5069152,2.2661653,2.0600019,1.3845085,0.93277442,0.95466593,0.88177279,-0.67106907,1
0.18195384,-2.1269252,-3.5488178,-4.6662346,-4.2046009,-3.1920868,-2.1101788,-1.6929109,-1.4098189,-0.49062603,-0.3344504,-0.32511234,-0.3134493,-0.31279141,-0.28536193,-0.3378763,-0.26824361,-0.27584434,-0.47127057,-0.33840873,-0.47990055,-0.44906407,-0.53797761,-0.54704312,-0.48833507,-0.57404284,-0.57135686,-0.60116772,-0.73085367,-0.76743163,-0.81930702,-0.82270841,-0.92262575,-0.91344341,-0.87628874,-0.94613431,-0.88528669,-0.8834412,-0.76625172,-0.62441745,-0.71393758,-0.56472731,-0.39354749,-0.33919411,-0.2605027,-0.073454135,-0.077930047,-0.048348974,0.011336004,0.080166606,0.077577766,0.15054831,0.13557961,0.15679972,0.17815765,0.22805182,0.19172772,0.13458969,0.18383186,0.22651071,0.22720869,0.19112467,0.29637633,0.38329421,0.3305308,0.44608588,0.40604973,0.41135902,0.56120904,0.53377016,0.61588805,0.61233076,0.56692379,0.62154961,0.70375513,0.6928804,0.58192287,0.64421473,0.63612871,0.56724201,0.54484092,0.54739266,0.58599445,0.54420606,0.48081873,0.41198638,0.46090761,0.43667256,0.43664091,0.37568712,0.3854741,0.37468306,0.30088341,0.37616578,0.42918752,0.54632027,0.70173771,0.8935665,1.0244799,1.177013,1.3975017,1.608918,1.7356586,1.6680052,1.749852,1.6752134,1.4554713,1.107561,0.97695716,0.67640159,0.42176714,0.081876897,-0.20152493,-0.27902161,-0.32089273,-0.24426993,-0.26072271,-0.32686512,-0.32606522,-0.29132771,-0.28919837,-0.3034557,-0.32532867,-0.30125514,-0.33646898,-0.34686902,-0.25401594,-0.14457009,0.2525268,0.77199221,1.0448913,0.9083109,1.0622692,1.089124,0.99303585,0.84278738,1.3020184,1.7951216,1.3463939,-1.0294093,1
-1.6497982,-3.2323111,-3.6158508,-4.6680587,-4.7762543,-4.0131851,-2.5259301,-1.4336645,-0.91761598,-0.11273776,0.30622459,0.33294962,0.19978071,0.23256645,0.39804938,0.34198849,0.27562165,0.29736522,0.24795324,0.24787622,0.066500948,0.13277422,0.1075455,0.10390211,-0.003133708,0.032958391,-0.075052976,-0.00521402,-0.039025407,-0.20638261,-0.18840995,-0.17091607,-0.34166737,-0.37732048,-0.34545588,-0.31992105,-0.47867748,-0.38077277,-0.32248089,-0.26818362,-0.25009852,-0.1575737,0.022795016,0.061803402,0.018720789,0.09961165,0.28561093,0.261832,0.31388245,0.28706353,0.14216931,-0.035306997,0.21046016,0.19845999,0.14265299,0.10218524,0.18914723,0.085415714,0.059941711,0.093841,0.095671263,0.10844735,0.15980086,0.095904668,0.17278913,0.20240598,0.24283188,0.31591494,0.33847122,0.48286562,0.50372717,0.57065169,0.56549947,0.56215747,0.66383765,0.66590904,0.58123672,0.54877702,0.59964254,0.52974663,0.50803383,0.58352705,0.4810677,0.46532206,0.50647604,0.44443332,0.35815206,0.3186524,0.36305298,0.36848691,0.33290727,0.30546471,0.31822433,0.33503347,0.20164182,0.28248364,0.40334326,0.29037815,0.34438387,0.39480758,0.523111,0.6825384,0.59926724,0.88573647,1.2176682,1.2299372,1.1263634,0.60123893,0.43988146,0.41718214,0.43201411,0.45257717,0.29317081,0.19333035,-0.15270944,-0.33170742,-0.3784981,-0.34598277,-0.36403141,-0.47502375,-0.50193166,-0.29409296,-0.42412297,-0.45788453,-0.47157711,-0.41680445,-0.43723513,-0.48953673,-0.27993135,0.010413473,0.77581366,1.6405725,1.8532073,2.0503803,2.0829953,1.5367623,0.067712881,-0.93290118,-1.0624405,-1.8962738,1
-0.66769582,-2.5218919,-3.3048982,-4.3358287,-4.2516298,-3.4039001,-2.2919423,-1.8188258,-1.5277059,-0.84277604,-0.49527263,-0.4520421,-0.35019099,-0.25405679,-0.29891201,-0.2750332,-0.24424382,-0.28941159,-0.26593653,-0.12864061,-0.31358469,-0.49391712,-0.26398855,-0.41838807,-0.34202556,-0.33655023,-0.43716569,-0.39610101,-0.27083089,-0.34136558,-0.55359851,-0.67068321,-0.53546601,-0.54747345,-0.56151955,-0.60365335,-0.61690909,-0.42947881,-0.53490107,-0.4284773,-0.391818,-0.28112671,-0.26668931,-0.13655399,0.011029046,-0.081587158,0.022845702,0.093209727,-0.004438671,-0.093983177,-0.003750151,0.060815367,0.15670953,0.10401423,0.19921599,0.11522123,0.15296943,0.15407547,0.08815096,-0.01907047,0.06844517,0.21716705,0.3304324,0.36834634,0.21470495,0.3290689,0.41728924,0.35476273,0.42422851,0.47007928,0.59333929,0.72605017,0.77623363,0.70845599,0.54977562,0.60054107,0.64999702,0.56092254,0.72827037,0.60855118,0.55183526,0.58008037,0.61793043,0.57172397,0.55497103,0.52415916,0.67990136,0.60323452,0.47483153,0.48989951,0.45722758,0.27624519,0.40300911,0.51172566,0.391599,0.43308787,0.90077453,1.0610521,1.0004542,1.1407747,1.3568369,1.5436308,1.905681,2.0873278,2.0157862,2.0220612,1.8605848,1.7027927,1.4122016,1.13672,0.86876058,0.48100197,-0.005320322,-0.28813346,-0.25433028,-0.30646188,-0.34522534,-0.3046304,-0.33264758,-0.29248925,-0.32460407,-0.31717632,-0.22916278,-0.1415015,-0.28066194,-0.37767039,-0.4401095,-0.39666023,-0.097041841,0.44303747,1.1661088,1.3746424,1.1882263,0.65915111,-0.14019357,-1.0271976,-0.80401214,-0.1991762,0.28850429,-1.2921548,1
-1.5074591,-4.0451,-4.5602039,-4.2642007,-2.9431594,-1.9252879,-1.6939065,-1.2328064,-0.47306574,-0.35843606,-0.42709185,-0.35267759,-0.42484138,-0.39049261,-0.32798662,-0.34731729,-0.3761346,-0.46861222,-0.44242427,-0.51602198,-0.51835063,-0.49887673,-0.55449879,-0.54072837,-0.65135609,-0.60609555,-0.66038671,-0.84490316,-0.86453762,-0.86148255,-0.81706132,-0.92848287,-0.95215524,-0.93532004,-0.93865921,-0.89048561,-0.86208406,-0.84188784,-0.71716861,-0.64550183,-0.56658019,-0.5162835,-0.42504438,-0.28402822,-0.26527083,-0.068002769,0.14934938,0.064560804,0.036973569,0.043109835,0.07146767,0.10470711,0.15793656,0.15019216,0.15955244,0.22877871,0.26023581,0.34187636,0.24807119,0.23772895,0.29361997,0.28286683,0.3487291,0.41395176,0.31736082,0.40958402,0.44071143,0.47471995,0.58921486,0.47282326,0.57145392,0.67125653,0.66227938,0.67675122,0.63315451,0.64563261,0.53908549,0.6385491,0.64796785,0.56072645,0.58324014,0.5763252,0.46217539,0.5429639,0.46512952,0.41993388,0.43778967,0.49942099,0.37397305,0.43304984,0.38457567,0.39811856,0.37959642,0.34076483,0.47892762,0.58190398,0.64539083,0.79367976,0.98742685,1.1657181,1.3702907,1.6875276,1.8970788,1.8938641,1.8747096,1.7734682,1.5958412,1.38046,1.2268435,0.88028525,0.52372124,0.21003084,-0.12825165,-0.26267997,-0.22767573,-0.30842669,-0.32351253,-0.29640851,-0.29671437,-0.24791408,-0.38139196,-0.32192182,-0.29931574,-0.35853392,-0.38034096,-0.35042262,-0.22252223,-0.14675546,0.192596,0.8328154,1.1747758,1.0577011,0.96103868,0.98044371,0.82233991,0.52476267,0.84120118,1.1416411,1.1517183,-0.60499152,1
0.063658053,-2.6244338,-3.9273055,-4.613352,-4.1815827,-3.4075372,-2.2574769,-1.588103,-1.3834406,-0.57802377,-0.35539124,-0.30820005,-0.30903742,-0.39770604,-0.33432437,-0.38429321,-0.29255467,-0.30367312,-0.38211199,-0.3690909,-0.42062266,-0.36811844,-0.35995628,-0.43104056,-0.55517448,-0.47375116,-0.43589739,-0.60084949,-0.6904327,-0.64562711,-0.66106445,-0.7314249,-0.76076448,-0.75091473,-0.75511943,-0.73684291,-0.78310052,-0.76424455,-0.72227089,-0.75563782,-0.585373,-0.51728113,-0.43107663,-0.39586943,-0.34997607,-0.19182974,-0.14898359,-0.042146047,-0.025958754,0.046231606,-0.015728562,0.058853193,0.10907218,0.08596316,0.14985902,0.1487182,0.18052907,0.082060848,0.20702855,0.1816499,0.18339855,0.2346309,0.32954338,0.3285193,0.39955592,0.31891357,0.40906973,0.42568953,0.48659787,0.58165072,0.5947442,0.56713719,0.55186781,0.58905508,0.63957084,0.56682961,0.51958393,0.56070062,0.40287147,0.41523282,0.44528487,0.40823717,0.47023066,0.49207169,0.46234552,0.33544835,0.37814112,0.44992651,0.38617158,0.38690267,0.27179422,0.36642815,0.29388835,0.23568133,0.2299215,0.27590861,0.44217601,0.50899706,0.76648441,0.98484841,1.1081526,1.1775046,1.4605011,1.7481468,1.8705633,1.7384719,1.6309988,1.4447274,1.3625674,1.083418,0.79085537,0.54234267,0.18086066,-0.097937739,-0.20086465,-0.25437616,-0.17512642,-0.19193465,-0.27540232,-0.14203584,-0.13312347,-0.21166737,-0.22861265,-0.13328809,-0.1706549,-0.21763254,-0.065420375,-0.10715325,0.005332189,0.13827636,0.59498331,0.70710505,0.81073921,1.0424508,1.2635551,1.1823666,1.1532943,1.4194951,2.1246908,0.11887227,1
0.77711009,-0.22284629,-1.9454086,-2.9394927,-3.6280579,-3.8050332,-3.1241906,-2.0618539,-1.6452684,-1.1504693,-0.2194796,-0.22006819,-0.31015294,-0.34611516,-0.20492799,-0.25437371,-0.26004783,-0.27411991,-0.40243477,-0.34583383,-0.34306936,-0.40186521,-0.54081832,-0.48890661,-0.48063787,-0.46755772,-0.65433255,-0.6675046,-0.66604358,-0.75968663,-0.89925835,-0.86394697,-0.86944436,-0.97851623,-0.93664766,-0.99463974,-0.98002601,-1.1137672,-1.0508568,-1.0632767,-1.0366025,-0.94345912,-0.97436508,-0.85622388,-0.79044274,-0.65980327,-0.58551405,-0.40026228,-0.35056321,-0.25322054,-0.17208574,-0.17659132,-0.091051266,-0.069985116,-0.050708319,0.00068926,0.004102857,0.033541902,0.16526752,0.11802613,0.050870046,-0.025887767,0.14879251,0.15122681,0.22824995,0.33853223,0.33212352,0.30920668,0.38919271,0.44408821,0.50229589,0.52634726,0.6349187,0.5554894,0.69618403,0.69303031,0.74134631,0.62591952,0.62895614,0.59529666,0.60070592,0.60358558,0.62744681,0.62072333,0.48560976,0.52073525,0.3261346,0.46363897,0.52731536,0.47325574,0.40947798,0.39026169,0.36526639,0.30293167,0.41079608,0.3044117,0.39440187,0.31366264,0.41178308,0.41026979,0.63312621,0.85017231,1.119598,1.4193691,1.3947353,1.7262154,2.0872528,2.3506565,2.2042446,2.3436434,2.0001319,1.8546495,1.5658051,1.3005177,0.80778196,0.14761548,-0.027612913,-0.2361258,-0.15887632,-0.20064443,-0.20329161,-0.23781268,-0.17772305,-0.15371026,-0.21168251,-0.20251169,-0.21346706,-0.2433764,-0.22631106,-0.18181957,0.016794594,0.52114486,1.4522952,1.4478343,1.3795031,1.4920741,0.84303187,-0.039639206,-0.7470491,-0.13201478,1
0.64294627,-1.5090713,-2.9303803,-3.9768775,-4.6450036,-4.1509114,-2.5671754,-1.9097597,-1.6362741,-0.68033109,-0.26108682,-0.29183236,-0.26038229,-0.28014483,-0.29249933,-0.18792567,-0.3330201,-0.28996031,-0.34364799,-0.37019698,-0.23580357,-0.40270603,-0.38288102,-0.33445265,-0.50399579,-0.41302297,-0.51730191,-0.55750927,-0.68380376,-0.749522,-0.70838291,-0.69963816,-0.82099227,-0.87449507,-0.8264908,-0.88527191,-1.0440166,-1.0246661,-1.0044193,-0.9453498,-0.90627241,-0.85760223,-0.61982306,-0.64000467,-0.57291229,-0.40467148,-0.4258039,-0.23910413,-0.21042858,-0.31099874,-0.11506277,-0.009109762,-0.14840018,-0.082778542,-0.051072312,0.007760627,-0.11833272,-0.017782419,0.066537155,0.079746044,0.043216294,0.031415412,0.095382272,0.14332306,0.17201387,0.18091908,0.25831999,0.30437177,0.4657333,0.58760127,0.54740675,0.58369819,0.58988988,0.50659455,0.66818329,0.68021551,0.69811109,0.65434439,0.83052724,0.73474354,0.74072599,0.63891762,0.5693959,0.49817034,0.41930465,0.62295259,0.44733392,0.47942838,0.48530276,0.40137957,0.38037593,0.4253874,0.46444606,0.3541596,0.32584414,0.37459462,0.22721222,0.2205871,0.32127801,0.24330114,0.40028684,0.48133212,0.38787376,0.61708412,0.64782885,0.89743503,1.0745748,1.3614693,1.5494798,1.4879686,1.1435691,0.82545431,0.92370422,0.81563074,0.95639978,0.91068259,0.42375634,0.14329578,-0.02210687,-0.033959718,-0.012674736,-0.076821894,-0.068080604,0.083605809,-0.016741148,-0.031025329,-0.066748527,0.08794623,0.14128868,0.071573817,0.19331572,0.52986944,1.5926072,1.7096599,1.7952256,2.0277285,1.8722631,1.6717856,0.81791133,0.73381621,1
-0.27408864,-0.49699131,-3.2252607,-5.3264659,-5.060134,-4.2871972,-2.8132921,-1.9118112,-1.2118017,-0.38843336,-0.009809732,-0.002384468,-0.2422118,-0.32080352,-0.36499987,0.17589482,0.38763834,1.0424274,1.2538372,1.1537785,1.1003074,1.1398363,1.1999935,1.1763428,1.1875876,1.2148797,1.2046049,1.2563281,1.1850745,1.0081282,0.81675899,0.78057979,0.63123517,0.6387278,0.63197297,0.41694657,0.5019326,0.42954045,0.57096526,0.48961908,0.35595192,0.52966749,0.57205707,0.66509939,0.71364551,0.51871509,0.50184322,0.61021247,0.5184202,0.51902746,0.42726814,0.48861518,0.35976487,0.3286522,0.33182834,0.21494849,0.23505376,0.21704863,0.12572099,0.12349096,0.13109409,0.17653993,0.025406766,0.035419544,0.039050892,0.049704941,-0.008979405,0.006208213,0.066592183,-0.12913731,-0.15428253,-0.13709218,-0.14777216,-0.064453181,-0.13102382,-0.16578646,-0.10592398,-0.28747452,-0.081436117,-0.14517654,-0.20243284,-0.11751029,-0.28251705,-0.3156521,-0.15974256,-0.30278949,-0.24423099,-0.16616317,-0.25509814,-0.31422885,-0.22019927,-0.28738921,-0.27467692,-0.3706393,-0.2806727,-0.28729504,-0.19775519,-0.36020503,-0.16878113,-0.30087348,-0.38654917,-0.15478285,-0.33060675,-0.25222591,-0.23874973,-0.16329422,-0.11887942,-0.17144333,-0.17724359,-0.27903328,-0.11713229,0.10938845,0.18339947,0.48466656,0.6155656,0.7680447,1.01273,0.67165368,0.24141739,0.25281487,0.21793321,0.073554303,-0.45631917,-0.78291895,-0.55056873,-0.66415091,-0.69562436,-0.70206334,-0.70488914,-0.62040755,-0.57697517,-0.51479009,-0.35006691,0.25021068,0.62041204,0.74287783,1.2382385,1.0700412,1.8003849,0.77647196,1
0.79816932,-1.8020042,-3.0753799,-4.0170237,-4.683664,-4.0181685,-2.5815504,-1.764911,-1.5706892,-0.30023391,0.028469607,-0.029179139,0.022485991,0.014925677,-0.14128901,-0.045007223,-0.081863746,-0.092036088,-0.028117164,-0.17830907,-0.12098748,-0.32151117,-0.31480741,-0.35220187,-0.34006158,-0.41047916,-0.46236331,-0.43587376,-0.64041334,-0.66917643,-0.75767463,-0.83517607,-0.75766156,-0.85204422,-0.92116816,-1.0151631,-0.84967655,-0.97370456,-0.87295014,-0.95692815,-0.91875816,-0.88073475,-0.69953559,-0.68498087,-0.52457411,-0.42778661,-0.44349545,-0.33964493,-0.39358297,-0.26741388,-0.084136872,-0.030000885,-0.20392713,-0.11215281,-0.1007899,-0.066955891,-0.007912431,-0.12462977,-0.024654384,0.030682141,-0.006520244,-0.092080046,-0.009720994,-0.00435983,0.075930124,0.20187375,0.18415949,0.30049386,0.31959357,0.29821112,0.34439008,0.32732396,0.37708049,0.48865097,0.55478617,0.42573874,0.41027193,0.67181748,0.6552272,0.49673828,0.65373237,0.46081195,0.43737987,0.48594064,0.40632127,0.3420781,0.46035481,0.42323691,0.32896667,0.26252291,0.32523647,0.29193306,0.25198461,0.18652917,0.32569474,0.31795521,0.29486433,0.22758298,0.33906226,0.3608737,0.34031818,0.41396569,0.36834425,0.702253,0.8621558,1.1364284,1.4326204,1.6533724,1.5193493,1.3611631,1.0881983,0.79645463,0.94204851,0.95450211,0.94924128,0.53230238,0.06612772,-0.05107196,-0.11818998,-0.08327829,-0.005811652,0.10095358,-0.056671853,0.035865944,-0.065789671,0.05481255,0.11602755,0.14099586,0.20280588,0.23819033,0.49203289,1.3628968,1.9281592,1.8088859,2.1329207,2.0413961,1.9436178,0.84625596,0.48995301,0.83391336,1
1.5290597,-0.1101939,-2.1377253,-3.2601623,-4.3364168,-4.0156364,-2.8447501,-2.0018237,-1.5499909,-0.47638559,-0.052547663,-0.1200435,-0.1101635,-0.14122167,-0.16638049,-0.23070277,-0.15131701,-0.18809615,-0.24582384,-0.23124094,-0.28383507,-0.36530341,-0.37529895,-0.51602168,-0.5284454,-0.56647978,-0.58362772,-0.58857074,-0.72232108,-0.72420907,-0.89190443,-0.7089886,-0.91763914,-0.92734001,-1.0089507,-1.0243772,-1.0487703,-1.2293004,-1.2246971,-1.0094514,-0.96001901,-0.84744755,-0.66176184,-0.56923044,-0.54115116,-0.27989831,-0.28451699,-0.17875775,0.014200614,-0.060929248,0.064714215,0.12671375,0.19874185,0.16645254,0.20814079,0.25332118,0.22910557,0.23562471,0.23065192,0.25462937,0.18246726,0.21311508,0.3712803,0.36249033,0.33064439,0.4896906,0.41069734,0.56501863,0.6153766,0.53601348,0.63059988,0.65857756,0.64695715,0.66957456,0.64577843,0.61411518,0.58101425,0.57206341,0.50781173,0.62753014,0.49881787,0.5337302,0.47581998,0.56294523,0.40562904,0.35645221,0.43452561,0.33022048,0.322109,0.18882249,0.2117932,0.21091649,0.38299169,0.27029145,0.26683648,0.20754741,0.18317282,0.13673424,0.21580386,0.15949143,0.19826743,0.37025627,0.63726514,1.0156161,1.1160125,1.2983502,1.4588779,1.829114,2.1800216,2.2393465,2.2110965,2.0393707,1.8204937,1.5853106,1.2187659,0.61199464,0.005582707,-0.25770018,-0.54448117,-0.57432364,-0.47863675,-0.49079289,-0.47611646,-0.39984204,-0.42991883,-0.37430603,-0.35446097,-0.43400621,-0.41199188,-0.41030101,-0.30648397,-0.1413853,0.40540667,1.3076193,1.0601597,1.398191,1.4266163,0.84613789,0.082872261,-0.3749548,1
-1.481137,-3.0361952,-3.5097394,-3.9435017,-3.8081297,-3.3767508,-2.7965179,-1.7864168,-1.2997334,-0.97244944,-0.40672326,-0.12426631,-0.045917713,-0.11351693,-0.19504946,-0.17218779,-0.074491841,-0.008223538,0.066571084,0.046518739,0.021878559,0.049546165,0.088848879,-0.022227768,0.013043169,0.12919754,0.078490597,0.13436035,0.094343282,-0.034460893,-0.020607655,-0.042491915,-0.014560881,-0.18376067,-0.17948218,-0.088338465,-0.10538655,-0.13236845,-0.13415439,-0.12412281,-0.065407316,-0.1100414,0.015420741,0.054512754,0.11916359,0.20303927,0.24962146,0.21323679,0.22020364,0.31086088,0.36277737,0.24007179,0.12412994,0.21749406,0.2133401,0.17407519,0.21419892,0.12714938,0.10408005,0.20358405,0.15879992,0.17710649,0.16775248,0.12414964,0.22372678,0.16957566,0.034661151,0.062981904,0.1103077,0.17283342,0.17613896,0.26199585,0.32709304,0.43153606,0.31837077,0.28914285,0.43478463,0.53743637,0.59403297,0.64583768,0.57256415,0.49472949,0.54328896,0.44652703,0.4191051,0.47049017,0.58139489,0.6522844,0.62658568,0.73102103,0.78895332,0.89794768,0.85509908,0.93666569,1.1623347,1.3484366,1.6567399,1.8501107,1.9534097,1.8512835,1.6605398,1.5829233,1.5338224,1.2628666,1.1105879,0.79946548,0.61927882,0.28061202,0.037670641,-0.17834068,-0.21701244,-0.38712026,-0.35779825,-0.32786697,-0.4829022,-0.42917831,-0.32898095,-0.33372603,-0.38147674,-0.47953581,-0.4525503,-0.50842188,-0.49813388,-0.32778257,-0.2716336,-0.022092534,0.34664447,0.83751096,1.0479404,0.94956431,0.95725486,0.66106177,0.2253262,-0.12087042,-0.48212285,-0.66538908,-0.3917426,-1.0657486,-1.9545065,-3.1867712,1
-2.8671276,-3.8093533,-3.8316265,-4.0496591,-3.6085901,-2.7780962,-1.8828807,-1.5609766,-1.0341885,-0.49114408,-0.38105893,-0.3372372,-0.28519811,-0.24897253,-0.2678274,-0.2517365,-0.14680586,-0.21051702,-0.34344469,-0.3433184,-0.28255395,-0.29973231,-0.30374737,-0.34843577,-0.26661581,-0.30185393,-0.33187803,-0.28752125,-0.35723954,-0.22029286,-0.24835358,-0.36470328,-0.39129152,-0.3242329,-0.38753536,-0.45457363,-0.42049725,-0.38915552,-0.5252601,-0.46254723,-0.44890283,-0.37615518,-0.12247587,-0.20685642,-0.24310936,-0.15644453,-0.26158099,-0.21640755,0.034601691,0.082947632,0.060838957,0.084253781,0.12989338,0.14423676,0.19391197,0.13715827,0.19598746,0.060342238,0.097997034,0.11830036,0.15247335,0.14278575,0.20193924,0.226068,0.011905302,0.045370819,0.2225819,0.28317988,0.21922959,0.23887355,0.15633916,0.18621636,0.30676989,0.36268914,0.40706165,0.54882973,0.4847112,0.50394222,0.62101125,0.65983768,0.59744052,0.60419382,0.60294225,0.64660719,0.57857528,0.48156919,0.63979942,0.60664217,0.68651086,0.56145146,0.56051317,0.51790208,0.5812544,0.76297057,0.92030553,1.0351063,1.1402132,1.3376398,1.5750026,1.7510374,1.7658262,1.8364506,1.8651371,1.7224887,1.4999501,1.3870981,1.189856,0.93152287,0.6812502,0.46752226,0.17686657,0.057584516,0.047641548,-0.14228068,-0.16368483,0.073923004,-0.002525137,-0.068501643,0.017303867,0.02564387,0.055975158,-0.040216603,-0.050848348,0.023482957,0.039759264,0.13687361,0.12857787,0.44751342,1.0073296,1.4176808,1.3660342,1.1276498,0.62434405,0.050105369,-0.39507861,-0.61396833,-0.5451359,-0.52532779,-0.99530542,-2.4087676,1
-1.0525916,-3.1557581,-3.384662,-3.7148284,-3.2056431,-2.3566909,-1.8836282,-1.7187839,-1.1345514,-0.78284571,-0.89406218,-0.81952729,-0.7988296,-0.7299783,-0.77003653,-0.7712076,-0.79259156,-0.86617399,-0.74645139,-0.77325238,-0.74275575,-0.76499819,-0.80303458,-0.79286074,-0.88286799,-0.87833126,-0.95194251,-0.91616481,-0.92859221,-0.89825801,-0.93005417,-0.94366928,-0.94163286,-0.91957246,-0.97578961,-0.97315423,-0.95908659,-0.93657737,-0.8996855,-0.81925111,-0.80213531,-0.64952743,-0.57129507,-0.48423541,-0.50852848,-0.45908437,-0.34942834,-0.32764563,-0.32260969,-0.23104873,-0.24440401,-0.19527949,-0.18393885,-0.13561589,-0.097925073,-0.082228969,-0.057068403,-0.054038649,-0.063661343,0.024221888,0.1055238,0.099676559,0.091479342,0.14131816,0.18507438,0.28678656,0.3237677,0.34068796,0.37105548,0.4278741,0.38722152,0.41731568,0.43070546,0.46631559,0.40596395,0.4246591,0.46593536,0.48000767,0.49595848,0.43214445,0.44498999,0.47018898,0.46764217,0.40695479,0.47985831,0.45912951,0.46341649,0.46870577,0.46260706,0.43458784,0.4376114,0.4882956,0.47608728,0.48031679,0.50601344,0.52015745,0.53309075,0.58040679,0.76456583,0.97605959,1.1161666,1.2603179,1.3433029,1.4935375,1.7509522,1.7354906,1.7506458,1.6418562,1.5162419,1.354459,1.2380834,0.99691627,0.67817112,0.40891804,0.31349467,0.29661512,0.2912021,0.37323978,0.43621399,0.39408108,0.38181821,0.39672826,0.41228842,0.38852073,0.50478139,0.51892222,0.52544563,0.49082539,0.57345945,0.74603013,1.1627927,1.5573569,1.5023756,1.5101056,1.2365853,1.025684,0.95814889,1.1325929,1.6279338,-0.13660833,1
-1.1859736,-3.2689192,-4.3783071,-4.707495,-4.2589655,-3.4343967,-1.9387123,-1.290655,-0.97706124,-0.36160352,-0.0403086,0.058435503,-0.024937129,-0.061746598,-0.049545412,0.086526644,-0.006973297,-0.011572668,-0.13958261,-0.12447252,-0.13428473,-0.15352045,-0.14115064,-0.21056315,-0.22888004,-0.22094863,-0.34846103,-0.36353097,-0.5067137,-0.47796252,-0.48249805,-0.4759911,-0.50328394,-0.5792523,-0.67554142,-0.63052768,-0.62345382,-0.58413998,-0.58263364,-0.48609838,-0.44971465,-0.37730954,-0.27353299,-0.26474793,-0.23354215,-0.15651204,-0.005393101,0.073324044,0.12946694,0.14747743,0.086684941,0.17930055,0.18186111,0.14960746,0.13470116,0.16833719,0.13187875,0.12582084,0.25928477,0.143944,0.14628605,0.26528638,0.30668391,0.22576009,0.30707557,0.33336495,0.33211143,0.36542258,0.35038799,0.48889935,0.48709823,0.43046759,0.54272343,0.68904955,0.6780083,0.59106786,0.72358956,0.56233928,0.61557544,0.63338745,0.54523114,0.63485938,0.53866151,0.47382067,0.39743282,0.4913733,0.46511447,0.3183692,0.40201609,0.38155161,0.32195686,0.39671886,0.37562646,0.43804261,0.50996648,0.65384581,0.95331315,1.1354186,1.2293148,1.4300058,1.6129854,1.7667287,1.7824776,1.7459352,1.7034756,1.429493,1.3103293,1.116845,0.91158094,0.55563351,0.04629394,-0.21016537,-0.44637316,-0.34020194,-0.41268759,-0.40122962,-0.29305107,-0.38952529,-0.39386,-0.39816642,-0.43545281,-0.38968264,-0.291818,-0.39434813,-0.51421075,-0.42060022,-0.34603639,-0.28962004,-0.028320182,0.39639245,0.71226906,0.72466465,0.75762075,0.62893005,0.66311477,0.63924799,0.75316594,0.92202237,0.72331222,-1.2996283,1
0.27764227,-2.4516135,-3.6040903,-4.054482,-3.3006959,-2.9497591,-1.8411476,-0.77994417,-0.29101154,0.063406143,0.39577128,0.65767809,0.73023727,0.9643345,1.0620351,1.0517394,0.95673886,1.0087327,0.75810608,0.53852595,0.47635314,0.30435268,0.29182952,0.30121365,0.43301721,0.70975712,0.71107968,0.91664679,1.0011433,0.44762272,0.28924584,0.42903747,0.18696587,0.049179039,-0.093712272,-0.094763823,0.18103647,0.43963992,0.39532992,-0.37530512,0.007519631,0.55670537,0.1983633,0.16591647,0.44174132,0.41936137,0.19652456,0.39370463,0.58626852,0.16790833,0.089859928,0.22482138,0.48363877,0.42862399,0.084133879,0.17988653,0.26594427,0.28670843,0.490697,0.27325525,0.077764701,0.006212432,-0.060392291,0.076188331,0.19395502,0.010283167,-0.12597479,-0.38499904,-0.65181589,-0.35794375,0.29316707,0.57177916,0.45299992,0.57096555,0.5199828,0.48044037,0.21755938,0.058075329,0.61964816,0.45395664,0.19608239,0.13346607,0.036233602,0.38526484,0.67841058,0.52549112,0.025695826,0.31541214,0.41559102,0.58367687,0.67201578,0.5788968,0.3377536,0.4648454,0.6960808,0.98634052,1.1010222,1.218591,1.74488,1.6731002,1.6505373,1.7480205,1.5046838,1.351986,0.9265416,0.46222956,0.043385187,-0.001076795,-0.45450434,-1.0290467,-0.74385502,-0.38702454,-0.63399876,-0.70875346,-0.71659487,-1.5666842,-1.3802898,-0.56840218,-0.55675007,-0.77053076,-1.1798481,-1.119496,-1.1068241,-1.350689,-1.2288309,-0.87622163,-0.27814309,-0.28613473,0.033153968,0.41962024,0.44387708,0.3321708,0.33588157,-0.47681264,-1.3851681,-1.283278,-0.81806247,-0.94435943,-1.6298582,-3.6950083,1
-1.2726572,-3.039906,-3.3029783,-4.2295249,-4.3843676,-4.0007014,-2.7237042,-1.7182158,-1.3086635,-0.64830024,-0.25919429,-0.17007505,-0.19341167,-0.2218899,-0.18723436,-0.18734876,-0.21263685,-0.26941836,-0.27857741,-0.29150552,-0.32966248,-0.25044513,-0.33004325,-0.30807328,-0.34617995,-0.38470572,-0.38007854,-0.40092921,-0.34190131,-0.46720404,-0.55433492,-0.49860246,-0.62332474,-0.52948841,-0.60113753,-0.62953497,-0.56612697,-0.58867559,-0.50633845,-0.52700848,-0.4441047,-0.51944266,-0.3747173,-0.24336868,-0.22859953,-0.10402795,-0.11580545,-0.091534312,-0.089150851,-0.051418759,-0.05300642,-0.095983691,-0.059368589,-0.13488989,-0.17884618,-0.10634107,-0.082263252,-0.020023929,-0.087442942,-0.14358193,-0.098103666,0.058882815,0.027079667,0.072733245,0.039585118,0.098694972,0.16775786,0.29791805,0.34068518,0.35403458,0.39144487,0.43829558,0.51290932,0.49684561,0.54047689,0.57417936,0.6221319,0.61931225,0.52817635,0.5452392,0.5158585,0.50244556,0.58089898,0.57044077,0.51554237,0.47188891,0.48174217,0.46135968,0.44851037,0.40270048,0.43974602,0.40468726,0.38058001,0.4717173,0.42449902,0.46993089,0.492514,0.52598352,0.50126425,0.54264856,0.59513059,0.67718183,0.8580835,1.0274768,1.2545869,1.4367751,1.3721134,0.98671532,0.7428175,0.67882448,0.64060142,0.71107593,0.72800799,0.63118998,0.34249237,0.073265011,-0.075550277,-0.06569512,0.058230936,0.054531221,-0.003121297,0.021402872,0.049558403,0.040920961,0.023830151,-0.004306997,-0.039188438,-0.016586729,0.061244264,0.25893194,0.76499028,1.6833104,2.0839742,2.0990627,2.4875715,2.1846042,1.3648752,0.21163619,-0.15975673,-0.78602072,1
-0.037433761,-1.8903496,-3.1869772,-3.7986409,-3.7766021,-3.6697254,-3.1770126,-2.1530615,-1.6289257,-1.5628389,-0.98760966,-0.59988462,-0.64584034,-0.65425413,-0.5643519,-0.58036919,-0.46243892,-0.5309834,-0.55305786,-0.45944852,-0.54555957,-0.52110775,-0.48082359,-0.52520578,-0.56716752,-0.54712677,-0.56160149,-0.62020017,-0.70431539,-0.66106803,-0.67198949,-0.68233382,-0.73517963,-0.72478025,-0.6607859,-0.68138291,-0.58818643,-0.60741669,-0.56214318,-0.52119395,-0.51925942,-0.41372026,-0.37790954,-0.35107803,-0.16783275,-0.15920475,-0.069933954,-0.023893771,0.009433883,-0.070802003,-0.10704818,0.031356143,0.013855386,0.074778125,0.067380407,0.041241379,0.049577625,0.10327494,0.1213331,0.1213976,0.15573078,0.10405262,0.12710289,0.13404015,0.16262472,0.2272771,0.2372682,0.30116461,0.28443299,0.41009155,0.39283584,0.39819562,0.48432092,0.4780481,0.56690185,0.46140624,0.44889848,0.4872731,0.44929436,0.4804466,0.43677366,0.33830874,0.42512514,0.47923393,0.45835709,0.48569325,0.37505493,0.41200394,0.38404606,0.40468751,0.40335077,0.33434178,0.38371216,0.48343132,0.58983555,0.74651568,0.88017911,0.94735308,1.1053996,1.3836485,1.6495056,1.9069343,2.0003559,2.0046364,1.9270591,1.6992062,1.4755932,1.2374607,0.92832718,0.63926455,0.28086343,0.10928964,0.027770895,-0.079895684,-0.04016241,-0.089818596,-0.097963355,-0.15603199,-0.048866912,-0.040859283,-0.031856076,0.024472113,0.014472808,0.019605503,-0.027903185,-0.000762808,0.10665289,0.22296341,0.41101262,0.93939288,1.2261257,1.2617936,1.4330947,1.3520777,1.121092,0.83720461,0.86016745,1.2219382,1.0222058,-0.87844862,1
-1.7200653,-3.7862362,-3.9311423,-3.7625605,-3.2619803,-2.4008137,-1.6934774,-1.5131386,-0.84351569,-0.42848335,-0.4177688,-0.51989107,-0.43977788,-0.497345,-0.53173337,-0.36124546,-0.40280558,-0.40782836,-0.45872885,-0.52098504,-0.54772998,-0.54479291,-0.56800023,-0.5807741,-0.60904756,-0.64652816,-0.66564899,-0.83250034,-0.87443024,-0.81094137,-0.88088156,-0.93840586,-0.99217215,-0.98270653,-0.98410527,-0.96955228,-1.0502384,-0.94379248,-0.91300943,-0.78775714,-0.76451997,-0.73997851,-0.60516262,-0.47539503,-0.39034383,-0.25118674,-0.21904729,-0.13439443,-0.052922901,0.010478778,-8.90E-06,0.058882895,0.051042668,-0.019869856,0.046307559,0.084161992,0.012382084,0.1140258,0.11428117,0.14095857,0.11063504,0.13781757,0.22245078,0.17078461,0.21871685,0.26660617,0.28161863,0.36591778,0.4484603,0.39469391,0.46175683,0.50934136,0.60408745,0.59518923,0.65589282,0.61826527,0.54610619,0.64197798,0.63439522,0.64147792,0.66811568,0.56032955,0.61373005,0.53328828,0.50619285,0.49601555,0.47645393,0.4432916,0.46076285,0.51079956,0.45899798,0.4082274,0.45445268,0.44495121,0.44957891,0.56406578,0.64673256,0.77798421,0.93683078,1.1091969,1.2336287,1.3939815,1.6501307,1.7211947,1.7597541,1.7424594,1.5744884,1.4416259,1.2523625,1.0384034,0.89872078,0.516656,0.18344396,0.055846134,-0.12961861,-0.13589414,-0.11629741,-0.18085433,-0.079672531,-0.12183265,-0.15575479,-0.17384594,-0.16959881,-0.1651551,-0.14267139,-0.12157282,-0.15124396,-0.1184565,-0.02013733,0.18521751,0.76174394,0.92551804,0.78990595,0.99044698,1.3268214,1.4340368,1.2851345,1.2969688,1.7783328,1.7424399,1
0.54046564,-2.3743006,-2.9114217,-4.164744,-3.8879024,-3.3015953,-1.6899709,-0.55800957,-0.40982436,0.23865757,0.78799882,0.77916813,0.74003529,0.75003059,0.61069913,0.66576053,0.54119405,0.45962363,0.50071013,0.48135364,0.49390959,0.43449472,0.32302045,0.26707136,0.13238731,0.16362586,0.083369959,-0.035411518,-0.016925503,-0.047779626,0.016866994,-0.089315697,-0.24686811,-0.11540609,-0.32551123,-0.38791257,-0.52240591,-0.55208104,-0.48105718,-0.45469101,-0.49825433,-0.45007828,-0.26471831,-0.31857,-0.43278402,-0.3503568,-0.37560934,-0.3659515,-0.38025205,-0.12367375,-0.3848893,-0.36736291,-0.3525453,-0.41919288,-0.46270741,-0.56787804,-0.40733224,-0.49550506,-0.62799958,-0.66929028,-0.56630151,-0.59867441,-0.60989912,-0.66884393,-0.53421293,-0.52709013,-0.53990446,-0.46343457,-0.35555775,-0.45884906,-0.47516534,-0.41337954,-0.25894845,-0.26984158,-0.18752493,-0.19949909,-0.25022603,-0.11176269,-0.10462527,-0.009766157,-0.032434559,-0.21302842,-0.20748808,-0.065848293,-0.038930261,-0.021166822,-0.10306558,-0.20900444,-0.085802845,-0.079177545,-0.0961788,-0.059470396,-0.083896772,0.14492136,0.3801982,0.65720768,1.1035487,1.1432619,1.5501659,1.9736181,2.3048117,2.3571283,2.2002364,2.1994845,1.988969,1.6835331,1.333558,1.1349353,0.87006571,0.63640329,0.090428846,-0.28788994,-0.28571731,-0.38990016,-0.27992216,-0.26433467,-0.33002235,-0.20463403,-0.21911298,-0.17633747,-0.16155349,-0.12292767,-0.041229299,-0.023372243,-0.1283617,0.058629942,0.034753261,0.50076859,1.1053176,2.0339212,2.5504414,2.1317211,1.6033723,0.84834344,0.54891703,-0.10645599,-0.22212973,-0.14801075,0.38534776,-1.3854556,1
-2.4081125,-4.1528015,-4.5214915,-4.5320006,-3.8342215,-2.764438,-1.6240762,-1.3825854,-0.85593566,-0.281995,-0.17495518,-0.22233618,-0.18245083,-0.15072142,-0.19551682,-0.18667782,-0.17024225,-0.31234138,-0.27682162,-0.19702498,-0.27560884,-0.21599609,-0.295257,-0.25465541,-0.28104052,-0.33875451,-0.32309864,-0.3593002,-0.37595451,-0.41065698,-0.59971587,-0.53976763,-0.62287688,-0.62469738,-0.52796799,-0.58494004,-0.5299416,-0.48609812,-0.49037308,-0.46122484,-0.38992999,-0.28155182,-0.25627515,-0.26071814,-0.11328284,-0.10009987,-0.038491664,0.16466596,0.14476991,0.087129579,0.15706532,0.23284562,0.17547924,0.21177227,0.12048833,0.15026805,0.19996425,0.12879243,0.1312097,0.10799371,0.14153086,0.1462035,0.10306917,0.13814856,0.099230201,0.22532155,0.23707154,0.1289681,0.28304132,0.35933962,0.2932725,0.33886449,0.38740822,0.3863072,0.40538242,0.48676991,0.51935635,0.53750549,0.5686823,0.57896048,0.65985427,0.49786199,0.53657314,0.53301848,0.52676103,0.48712562,0.52406342,0.48992439,0.40690515,0.42037588,0.42217454,0.4807273,0.52810952,0.6412879,0.75016012,0.81003071,0.9066096,0.98933616,1.192098,1.3034171,1.6533024,1.7505122,1.7322511,1.7458062,1.4983073,1.4397945,1.2911023,1.0893437,0.88481878,0.54196958,0.12559992,-0.11159972,-0.23230763,-0.31580907,-0.24344612,-0.29109561,-0.2679985,-0.2732703,-0.30692165,-0.21142921,-0.29023387,-0.19444399,-0.20933362,-0.2567939,-0.18860092,-0.25806624,-0.21278367,0.13007897,0.56686475,0.91392611,0.88303198,0.87075681,0.90028481,0.81718598,0.72681033,0.5877856,0.83245038,0.87681831,0.37109462,-1.3840332,1
-0.20564988,-1.6617565,-2.802114,-4.0109618,-3.7829696,-2.8144955,-2.1028561,-1.8816215,-1.2382661,-0.55951738,-0.61473031,-0.57787845,-0.60669102,-0.50948364,-0.52759405,-0.61280372,-0.56175471,-0.63199457,-0.55009031,-0.5951348,-0.68933204,-0.70874839,-0.67228732,-0.79800974,-0.75476282,-0.79490494,-0.80588622,-0.81415454,-0.88644407,-0.87862468,-0.95342834,-0.9858051,-1.0575372,-1.0187205,-1.0923846,-1.078787,-1.0575075,-1.0198835,-1.2319173,-1.1382864,-1.0357411,-0.99125256,-0.82786447,-0.76652483,-0.62193482,-0.45712841,-0.43169593,-0.36155877,-0.28966154,-0.26122506,-0.16942919,-0.16324276,-0.094232811,-0.12607737,-0.045291671,0.089252703,0.074537474,0.1034755,0.10747762,0.066556412,0.09220187,0.14237515,0.23435601,0.24715411,0.21346039,0.27078525,0.24774484,0.32957005,0.39924002,0.40986482,0.43696152,0.41284934,0.50830764,0.51820711,0.54259276,0.56077431,0.6356837,0.69794674,0.67921022,0.74831672,0.71721754,0.59614773,0.5896186,0.68168867,0.68077585,0.60659309,0.53444313,0.54546461,0.51949552,0.594179,0.56337706,0.51559035,0.52965453,0.44931665,0.47078814,0.51845656,0.57789376,0.66651645,0.90820367,1.0616578,1.2028979,1.3765846,1.5730446,1.6615134,2.0357832,2.0034316,1.9119786,1.7958741,1.6314212,1.4910616,1.2118414,0.90321943,0.55355222,0.19062452,0.010064498,0.0277498,-0.004054507,0.048361928,0.026910611,0.014559371,0.036886835,0.088867309,0.082721415,-0.04285282,0.18007578,0.14555234,0.077987312,0.10988662,0.23400125,0.50919501,1.2279403,1.6060878,1.3614113,1.2990419,1.074928,0.60510258,0.40100305,0.32422493,0.95451622,0.88965918,1
-1.9467936,-3.7342429,-4.2895208,-4.3333471,-3.3155623,-2.2657735,-1.6639052,-1.4461078,-0.69156939,-0.42919682,-0.48239222,-0.53500735,-0.53745463,-0.51250393,-0.46757227,-0.41649295,-0.43419941,-0.35870119,-0.36599488,-0.39695608,-0.50858353,-0.60586858,-0.60836729,-0.57513172,-0.60701193,-0.62726126,-0.58450402,-0.82469093,-0.73653517,-0.77726369,-0.75084215,-0.79909065,-0.848027,-0.81380708,-0.75933735,-0.83741242,-0.70196183,-0.72426502,-0.76204408,-0.65831356,-0.60313049,-0.51724405,-0.46987828,-0.28980558,-0.28056164,-0.14495264,-0.10924282,-0.16726239,-0.057214994,-0.054551321,-0.053393419,-0.042192481,-0.048869783,-0.095055375,-0.021823616,-0.068794329,-0.026673112,-0.022106924,0.08011915,0.090984003,0.030583057,0.10441741,0.17171848,0.13183266,0.21801814,0.28772278,0.28276436,0.3295363,0.38017657,0.44306759,0.47396887,0.44056431,0.50451974,0.57826393,0.63361359,0.62225812,0.71702882,0.67001562,0.61962798,0.64711765,0.65188862,0.57474816,0.53231781,0.5900277,0.52023964,0.5205479,0.51805121,0.43840068,0.47535122,0.47412605,0.46543325,0.50948293,0.52651596,0.52343807,0.56099571,0.63245744,0.79118029,0.94599301,1.0491941,1.3201385,1.4577493,1.6471472,1.8941338,1.8027001,1.7517986,1.6266216,1.5171176,1.3759548,1.0659464,0.89201196,0.54880986,0.24322137,-0.00689801,-0.16838126,-0.27028728,-0.15826865,-0.11273746,-0.16544466,-0.08822766,-0.14156724,-0.10882176,-0.17168229,-0.16553948,-0.19870311,-0.17653822,-0.099459003,-0.055497403,0.035544944,0.28693114,0.94885424,1.1205713,0.93565394,1.1782753,1.1959964,1.1330242,0.86084129,0.79250471,1.1758266,1.2949419,0.03379461,1
1.2177393,-0.083344807,-1.9800394,-2.9781176,-3.8946736,-4.0259933,-3.0539755,-2.018318,-1.9928841,-1.344857,-0.44828537,-0.50189906,-0.41630443,-0.3876386,-0.51064542,-0.46332399,-0.46069365,-0.43335243,-0.46279183,-0.40357223,-0.50290642,-0.53031355,-0.53589645,-0.56546176,-0.50821088,-0.53662614,-0.61495372,-0.60664848,-0.67985914,-0.7460893,-0.84109801,-0.87414992,-0.87268019,-0.95934442,-1.0524494,-1.0436782,-1.0577338,-1.0290507,-1.0350371,-0.95563773,-1.0731334,-0.96078996,-0.89935531,-0.7206505,-0.65298253,-0.40478062,-0.2862131,-0.26359268,-0.15298154,-0.16545197,-0.099070672,0.013059755,0.032007011,-0.035390439,0.007690341,0.080050835,0.078137415,0.10798958,-0.031372408,0.079110041,0.097786707,0.10173872,0.026928316,0.13840836,0.10478121,0.1026683,0.22688014,0.17958583,0.22197204,0.26463125,0.22263977,0.34419349,0.31494633,0.46641295,0.38926956,0.46552278,0.46224282,0.55073962,0.48481489,0.4845311,0.60777068,0.57686133,0.53902939,0.50875201,0.48703695,0.32576299,0.45888556,0.43204691,0.41630579,0.37722523,0.3859015,0.33893627,0.32620349,0.37729573,0.2671435,0.24652967,0.27154244,0.34568813,0.50546939,0.75830916,1.0923957,1.2374223,1.2201987,1.3530786,1.6022582,1.8540241,1.8002437,1.9034363,1.7728649,1.6275303,1.42766,1.227678,1.1292236,0.72456145,0.2299881,-0.10098243,-0.21879863,-0.13133676,-0.1310768,-0.14728882,-0.18372436,-0.091981036,-0.16582867,-0.17257375,-0.16013831,-0.066626918,-0.07156775,-0.10674559,-0.10272269,0.089892195,0.29481683,0.92797974,1.0555399,1.2778855,1.6347451,1.7121391,1.734458,1.1900444,1.6782425,1.3882116,1
1.1925713,-1.5789487,-3.5689921,-4.0361864,-3.8773602,-3.24768,-2.0391364,-1.5869051,-1.378879,-0.43424234,-0.18458084,-0.26983076,-0.25493551,-0.19499834,-0.23841997,-0.13849297,-0.1656772,-0.31286534,-0.27069981,-0.26930802,-0.2132588,-0.42106298,-0.42853761,-0.4546842,-0.51904521,-0.54321659,-0.54126647,-0.65604002,-0.73781503,-0.78590291,-0.82942955,-0.77783388,-0.95534258,-0.95167437,-0.94068886,-0.98141309,-0.98294753,-0.95477257,-0.9536905,-0.80546039,-0.81923465,-0.76085221,-0.64062493,-0.60347517,-0.45449737,-0.33668639,-0.30834719,-0.23793221,-0.16406073,-0.052274545,-0.055901974,0.017121531,-0.046905997,-0.066868543,0.021480083,0.025899718,0.098193709,0.091792782,0.11901994,0.071346699,0.16265581,0.20929103,0.31273323,0.236513,0.27021767,0.26231584,0.356215,0.31174846,0.47413546,0.45907442,0.47397216,0.46728597,0.49883321,0.52331757,0.5589248,0.60553304,0.54649977,0.61060974,0.55176059,0.53737321,0.44952452,0.34232449,0.35071825,0.40036697,0.43235743,0.35874978,0.33538302,0.27761146,0.26651629,0.2615901,0.27958164,0.30401833,0.2072064,0.20745181,0.2787136,0.31394868,0.50123293,0.49353969,0.81590361,0.93948399,1.0286117,1.4133656,1.5745279,1.8318105,1.8004468,1.8575871,1.8218369,1.5555487,1.2998472,1.0762067,0.6580113,0.30053696,-0.019511076,-0.35786464,-0.35419729,-0.38815764,-0.36887338,-0.38383772,-0.30693798,-0.38517428,-0.42539235,-0.34770261,-0.41412488,-0.42826586,-0.28235059,-0.2924376,-0.38983243,-0.26262402,-0.073787303,0.17989238,0.72914117,0.99030633,0.86839034,1.4614805,1.7185595,1.6238182,1.4894663,1.5892975,2.5698883,1.1897191,1
-0.08750857,-2.2474515,-3.5909911,-4.1332235,-3.9169873,-3.3370718,-2.2732285,-1.7121275,-1.3982914,-0.79610828,-0.41009249,-0.33618646,-0.38367741,-0.31447551,-0.26289052,-0.35473762,-0.42203586,-0.39382346,-0.34584406,-0.33862362,-0.43710706,-0.44151704,-0.46064983,-0.55989336,-0.54641471,-0.62857396,-0.71933739,-0.67343528,-0.80038948,-0.80454856,-0.80769934,-0.90058401,-0.90287915,-0.86207347,-0.96144368,-0.97955613,-0.8824658,-0.84405567,-0.84224802,-0.83324282,-0.70428079,-0.6961901,-0.56583458,-0.44129574,-0.30107012,-0.18584278,-0.20095228,-0.21443226,-0.12048985,-0.063194358,-0.035809798,-0.008589879,0.087437653,-0.015444808,0.080125744,0.003989417,0.081711926,0.084874144,0.080968685,0.096509441,0.12985493,0.19915112,0.20546153,0.19692176,0.22964931,0.25036244,0.42486866,0.3748648,0.4264735,0.41982001,0.41537155,0.51782293,0.48394592,0.58168534,0.48087455,0.48021318,0.58607039,0.53062873,0.45992307,0.53933546,0.5716381,0.45846336,0.42432397,0.36736167,0.40331825,0.40194848,0.32070514,0.30926896,0.26736968,0.3139304,0.34960518,0.33740305,0.27155283,0.28544559,0.41635716,0.48598925,0.64794452,0.87422148,1.0158347,1.118809,1.3106985,1.4659048,1.7886678,1.8749217,1.846698,1.7946622,1.6539295,1.4920499,1.2827343,1.0650062,0.73084936,0.29695398,0.064505529,-0.023604571,-0.13854793,-0.11321283,-0.12515001,-0.1556661,-0.14610238,-0.080044287,-0.1038268,-0.15293218,-0.1375061,-0.10046326,-0.055081716,-0.10794193,-0.075799337,0.080446659,0.1095492,0.51897017,1.040038,0.99472458,1.2944813,1.6031629,1.5668002,1.2227932,1.0585921,1.5207791,1.669946,-0.42547439,1
-2.5183465,-4.3019819,-4.6785087,-4.3959241,-3.524637,-2.2789493,-1.5977453,-1.3025727,-0.49642623,-0.34175101,-0.31792502,-0.25203897,-0.25941601,-0.27133194,-0.23631648,-0.22445729,-0.25029076,-0.28783559,-0.26520189,-0.29118096,-0.32142115,-0.37533616,-0.351261,-0.32326814,-0.36196064,-0.4086607,-0.37740975,-0.4947917,-0.44041659,-0.51615617,-0.63806522,-0.60889493,-0.6042161,-0.66054482,-0.51389664,-0.55701247,-0.52402378,-0.51310845,-0.52929016,-0.38226365,-0.31422601,-0.29220196,-0.23647614,-0.06104319,0.070421592,0.012586951,0.10977592,0.20949438,0.15479943,0.19663797,0.1417416,0.15074801,0.15396767,0.15855217,0.099061186,0.096322806,0.030785998,0.053898505,0.068478624,0.1168766,0.10432075,0.10428861,0.11156612,0.13875949,0.17298583,0.1359651,0.13520038,0.23880146,0.25754052,0.27802529,0.36380968,0.39707809,0.46098034,0.43371687,0.4461212,0.45860312,0.50682691,0.52540374,0.47193706,0.49937161,0.45513852,0.48151343,0.43648122,0.39365991,0.39645974,0.40618696,0.39677077,0.35671083,0.35626653,0.38403593,0.40817737,0.32240521,0.47390116,0.51253737,0.46889043,0.74634417,0.81331218,0.97360513,1.146344,1.3684785,1.5486609,1.7943725,1.9433286,1.8485434,1.6974424,1.6827668,1.5197359,1.2376093,1.0515171,0.71155386,0.3976391,0.074706807,-0.18036862,-0.20774512,-0.22776647,-0.22501769,-0.29357826,-0.22820929,-0.27904525,-0.28454496,-0.3115573,-0.32556625,-0.31063402,-0.29771469,-0.24998165,-0.25597166,-0.22698902,-0.066328249,0.16395532,0.69655137,0.92056907,1.0186331,1.1567095,1.1704955,0.94160689,0.5257939,0.57172519,0.83744267,0.73885198,-1.1430805,1
0.93788623,-1.7970355,-3.5519847,-4.3127845,-4.1548213,-3.5371929,-2.2109445,-1.4144668,-1.0850491,-0.29206955,0.24272342,0.40458176,0.36251761,0.31790378,0.27376135,0.39083932,0.34607704,0.35849335,0.26406654,0.25945126,0.27174371,0.2137175,0.19479992,0.17143611,0.15251619,0.03986474,-0.014815425,-0.16608929,-0.084855925,-0.086888152,-0.099656944,-0.2719326,-0.34933596,-0.33870308,-0.38206304,-0.35758761,-0.38704876,-0.36581809,-0.27895239,-0.24360488,-0.084400177,-0.11570166,-0.11433345,0.038501947,0.18149975,0.15889388,0.2399923,0.30459548,0.29424504,0.32637341,0.29558035,0.30268852,0.32867224,0.28400433,0.37577553,0.28634115,0.35284777,0.32227217,0.32398872,0.33661902,0.36333462,0.41934355,0.48116882,0.43675076,0.42718345,0.44071892,0.57497787,0.47680578,0.56247624,0.60722479,0.66781539,0.63087607,0.70511518,0.76818228,0.6731631,0.67701404,0.57183042,0.63939571,0.54115798,0.5041235,0.56239081,0.48631351,0.40217702,0.44076016,0.4355425,0.38319896,0.29326619,0.26045232,0.19957128,0.23120447,0.30514228,0.18779723,0.2499499,0.17231648,0.14219454,0.2534082,0.41489934,0.57148315,0.75852336,0.91867209,1.0872141,1.2809815,1.817754,2.0680468,1.9144428,1.9974028,1.6167517,1.4029774,1.1152956,0.75522074,0.33929592,-0.14426568,-0.58605748,-0.92003583,-0.99533126,-1.0824423,-1.1095606,-1.0173619,-1.1150002,-1.0474745,-1.0207909,-1.0717083,-1.0835375,-1.1846712,-1.1227485,-1.1427012,-1.1521042,-1.1726538,-1.0490898,-0.48503759,0.08715479,0.17910014,0.33358489,0.59043896,0.52564974,-0.017648905,-0.035027744,0.61580019,0.63554377,-2.5024638,1
-0.74606993,-3.447086,-4.7815737,-4.8342699,-3.7284017,-2.4632832,-1.6154743,-1.4619355,-0.69670614,-0.18306149,-0.22541594,-0.15570303,-0.16981233,-0.16042779,-0.17092839,-0.21248218,-0.15001887,-0.23618268,-0.27325304,-0.28691279,-0.29502255,-0.26952403,-0.2963721,-0.36784787,-0.37777597,-0.41856001,-0.4620382,-0.4211987,-0.39657501,-0.47984982,-0.52220247,-0.59050989,-0.58045511,-0.6823824,-0.77642125,-0.70952168,-0.7268468,-0.77106827,-0.69412126,-0.63413247,-0.73076829,-0.63891776,-0.56483571,-0.43807693,-0.30051995,-0.32232681,-0.1253645,-0.043216037,0.046867677,0.013971486,0.097593621,0.12569945,0.12146357,0.15366615,0.23898684,0.16336179,0.23463973,0.28214854,0.26312572,0.28978649,0.35161917,0.34555535,0.40690787,0.36241577,0.47813581,0.46257918,0.44389062,0.51398324,0.57795014,0.63308085,0.56628241,0.60479778,0.65875727,0.66674863,0.82850869,0.76678878,0.72223859,0.75344692,0.75179152,0.70438866,0.6558441,0.72809584,0.60885315,0.66137573,0.62004883,0.50386792,0.51190775,0.53827568,0.45602307,0.47969921,0.3780857,0.32761741,0.38112319,0.36387187,0.46772076,0.37623562,0.45360152,0.46924615,0.51078906,0.73717439,0.98727513,1.1922157,1.3158954,1.5511229,1.8151276,1.8366248,1.7688352,1.8110641,1.5228387,1.2827621,1.2098711,0.87827049,0.51184413,0.02754018,-0.25133462,-0.29155727,-0.44348722,-0.42508332,-0.35113147,-0.41819804,-0.45978601,-0.33810344,-0.46281344,-0.39395171,-0.46585351,-0.43042101,-0.41578303,-0.43113821,-0.32865782,-0.088719866,0.64351746,1.3050664,1.1334245,0.89049354,0.76391154,0.1770154,-0.22978241,-0.54853127,0.29083901,-0.36640603,1
-1.5879513,-3.3091241,-4.0564123,-4.4799882,-4.2844315,-3.6932185,-2.5641333,-1.6682297,-1.3686761,-0.99962596,-0.48732523,-0.20413129,-0.41266095,-0.35979425,-0.20985447,-0.23827331,-0.29444253,-0.28312635,-0.26092022,-0.17148502,-0.22114962,-0.25535416,-0.20342284,-0.22196617,-0.15619501,-0.11911565,-0.064943747,-0.11393461,-0.040234375,0.040514486,0.028865268,-0.055938952,-0.031373533,0.032959753,0.085591599,0.14395994,0.13566922,0.097487637,0.14230856,0.073812642,0.17270769,0.26379068,0.34127619,0.26283649,0.24064504,0.34242968,0.30086397,0.28601155,0.33661398,0.35248543,0.25786891,0.29979665,0.20744548,0.24462755,0.26000018,0.16118011,0.11939231,0.11629382,0.17241376,0.20430714,0.18615072,0.12843244,0.15723261,0.20001769,0.080265358,0.14709835,0.046626051,0.18082849,0.2337041,0.20933242,0.23771186,0.27388073,0.35534391,0.38912798,0.36482181,0.4407374,0.48508215,0.51420357,0.43440207,0.4791577,0.49789717,0.50688936,0.52613428,0.43371549,0.47037306,0.49096414,0.41858258,0.4805729,0.38628689,0.41918448,0.48208268,0.48176837,0.58837859,0.84237899,0.92960426,1.0322608,1.1982448,1.284326,1.5590061,1.7580353,1.7616733,1.5967436,1.6161874,1.5219648,1.2803992,1.1472667,0.93879749,0.68904295,0.4455518,0.15327111,-0.091390963,-0.20446694,-0.31805536,-0.21973169,-0.26243348,-0.2719422,-0.21040224,-0.19783723,-0.24307201,-0.28770404,-0.21236773,-0.24660597,-0.33986796,-0.35769776,-0.29109234,-0.14029877,-0.03257489,0.36305667,0.85760542,0.85601967,0.82730327,0.59765195,0.00758783,-0.3294322,-0.50551038,-0.4800061,0.12649843,0.087753612,-0.83933466,-2.4301165,1
-0.80424723,-2.6556869,-3.2648958,-3.9641685,-4.1221949,-3.857247,-2.748969,-1.7492265,-1.4720814,-0.96271007,-0.38223479,-0.35604538,-0.36348694,-0.36965088,-0.40113564,-0.35680733,-0.40853335,-0.28703518,-0.28189416,-0.37381996,-0.36560484,-0.38076147,-0.32335828,-0.34064401,-0.34875606,-0.40111238,-0.54415633,-0.45023517,-0.40842619,-0.40625231,-0.4403432,-0.51702649,-0.5064371,-0.48276968,-0.49034567,-0.51200243,-0.42951073,-0.4037681,-0.49315912,-0.35962849,-0.3370004,-0.27510757,-0.22417466,-0.084810219,-0.092485493,-0.16623597,-0.024983617,0.036801923,0.029229002,0.009696614,0.055119711,0.10345609,0.03727825,0.053817951,0.09999607,-0.015646809,-0.048434798,0.003953246,0.00248853,0.087415623,0.037439289,0.083473171,0.009849208,0.091126498,0.17413032,0.28955563,0.29448203,0.28892374,0.30662976,0.34241356,0.38299667,0.46448033,0.51405756,0.45260261,0.59844557,0.63171321,0.5389897,0.62502768,0.5883997,0.55546844,0.5901201,0.57629143,0.63771472,0.64187071,0.5341632,0.47058974,0.45893535,0.52350378,0.48342676,0.4586411,0.4500144,0.35005364,0.4556454,0.55144406,0.62630421,0.74531873,0.9417467,1.1365852,1.3248997,1.3848361,1.8022859,2.0753149,2.1779136,2.0075122,1.9547947,1.8901728,1.6299197,1.4150554,1.1988589,0.96868355,0.72231868,0.2859277,0.021518001,0.036801642,-0.17097235,-0.11149361,-0.05534256,-0.12058335,-0.10700144,-0.15449836,-0.12485834,-0.15149462,-0.15395829,-0.10708702,-0.13865999,-0.063560649,-0.10171439,0.004395082,0.21843184,0.71799947,1.3665471,1.415083,0.98886681,0.31222983,-0.33043826,-0.70805679,-0.87416314,-0.8146164,-0.099768404,-0.89867711,1
0.79576473,-0.45673593,-2.1866267,-3.049592,-3.823491,-4.045447,-3.1327834,-2.0254176,-1.6931674,-1.0353139,-0.23892337,-0.3289726,-0.23437017,-0.29658732,-0.3879453,-0.29307724,-0.18582451,-0.31872796,-0.36825945,-0.32411655,-0.53059521,-0.5362059,-0.42551322,-0.48610898,-0.54668846,-0.70112105,-0.65182336,-0.71433932,-0.71000898,-0.75000387,-0.79763571,-0.86609468,-0.84454518,-0.85973179,-0.96984854,-0.99161954,-1.0672199,-1.0574244,-1.0115911,-1.0813584,-0.89285436,-0.90588875,-0.8729975,-0.76228167,-0.56693914,-0.50470178,-0.42555131,-0.384322,-0.32494447,-0.27873593,-0.27065513,-0.11876777,-0.14334484,-0.12267331,-0.047750742,-0.11890314,-0.076027801,0.086222009,0.000127118,0.052002711,0.12024335,0.15316728,0.14246704,0.2133202,0.23286737,0.20776572,0.15752774,0.37510969,0.43630565,0.35177475,0.41069806,0.45584154,0.55807327,0.55351741,0.57181476,0.49242807,0.5937066,0.59368825,0.54552937,0.59672587,0.45842821,0.5093108,0.46944744,0.52231721,0.3539373,0.43705066,0.38183235,0.39603305,0.41571415,0.42743172,0.494533,0.35829246,0.48052757,0.45827364,0.36431518,0.39543239,0.43530698,0.4127593,0.38786221,0.42130706,0.5603897,0.74772889,1.0244834,1.1654073,1.2818392,1.5243587,1.8207104,2.1970386,2.3031337,2.3455255,2.1253596,1.8437149,1.7578063,1.4380649,0.85902885,0.34130162,-0.048809626,-0.13320315,-0.10287159,-0.18868987,-0.19430023,-0.1848299,-0.12230597,-0.13172085,-0.1268948,-0.14080944,-0.18522986,-0.033877418,-0.055946716,-0.10613399,0.057318177,0.66581941,1.2354756,1.2760355,1.5852743,1.3828799,1.0687943,0.29380491,0.030076322,0.38964867,1
-1.6446008,-3.9070449,-4.2273545,-4.1669676,-3.356747,-2.4036813,-1.8392344,-1.3783747,-0.52969736,-0.36378748,-0.32264832,-0.3088134,-0.32484949,-0.29576872,-0.23893058,-0.22546471,-0.31558758,-0.3197619,-0.37620223,-0.37279211,-0.37488915,-0.41928058,-0.48144349,-0.39645059,-0.44611205,-0.54908698,-0.50675289,-0.5394526,-0.68342721,-0.6570595,-0.68783846,-0.8326221,-0.81624863,-0.91467984,-0.8723965,-0.89694044,-0.78748331,-0.85305827,-0.78457809,-0.77751809,-0.67758978,-0.64179601,-0.50927085,-0.3984042,-0.40504976,-0.19239151,-0.20504487,-0.09222335,-0.028978001,0.046398835,-0.025487652,0.076098111,0.1331249,0.18570732,0.23482487,0.25135984,0.2394608,0.22899338,0.34381453,0.30477496,0.33956997,0.4315855,0.36685269,0.3910095,0.48156719,0.57607818,0.47429058,0.4593145,0.61826704,0.58069093,0.60842295,0.58965555,0.62808827,0.62543144,0.59406202,0.66709536,0.69464552,0.59224075,0.61781653,0.60473473,0.53797877,0.50733845,0.47893257,0.45364671,0.45216715,0.4374546,0.29802519,0.47346836,0.46107214,0.46327663,0.36782688,0.38635241,0.37748289,0.4036308,0.33463149,0.29877593,0.39606166,0.36124708,0.50517064,0.42460448,0.63522022,0.81967407,1.0562065,1.3066396,1.6903161,1.9759604,2.1548767,2.3092845,2.1799438,1.8675479,1.7295286,1.4520915,0.9020742,0.4061754,0.12392626,-0.086631453,-0.32512131,-0.27804225,-0.29967413,-0.32146026,-0.31974955,-0.27038989,-0.28315279,-0.29722448,-0.28355605,-0.25823201,-0.26036344,-0.21749062,-0.20510702,-0.038668044,0.47728183,1.220583,1.035806,0.77626736,0.5643694,0.15672016,0.098099968,-0.027417243,0.98460959,-0.18418028,1
0.15864646,-1.5386207,-3.6008944,-4.4516147,-4.2456252,-3.4765177,-2.5372017,-1.9157789,-1.6572823,-0.91070956,-0.49294035,-0.55754031,-0.46151182,-0.49790536,-0.45689936,-0.40884745,-0.4451671,-0.48918598,-0.47359958,-0.50412909,-0.46430256,-0.50932898,-0.47900485,-0.53309768,-0.51081298,-0.53825925,-0.62538631,-0.62390434,-0.69231395,-0.7302093,-0.73814771,-0.73076755,-0.74409506,-0.81566943,-0.89639024,-0.87073581,-0.81947263,-0.75942158,-0.75311777,-0.73416595,-0.59428705,-0.53568885,-0.45511042,-0.36278713,-0.22034293,-0.20757512,-0.09440477,-0.093529988,-0.00217151,0.008538154,0.041714308,0.06131834,0.025701407,0.10793498,-0.000788227,0.12189192,0.10006344,0.1190228,0.072269323,0.047113255,0.1708741,0.12387095,0.18374847,0.18291462,0.18998492,0.26041328,0.36970191,0.37271336,0.48170103,0.48941508,0.53299184,0.54256847,0.58939205,0.5701789,0.64294348,0.67251149,0.66162229,0.67345925,0.5539761,0.5816485,0.60245087,0.53951598,0.57605918,0.49934917,0.47102697,0.48083191,0.57416765,0.51073107,0.39741635,0.41734919,0.34288372,0.39968923,0.38148329,0.37564427,0.39649078,0.39343596,0.61523826,0.77688493,0.9313949,1.0535151,1.1041803,1.3561219,1.4958725,1.545212,1.5351969,1.4637279,1.3269347,1.1976308,1.0907295,0.83088406,0.5667729,0.40089649,0.12378181,-0.030317216,-0.08137558,-0.10560668,-0.11023858,-0.13239782,-0.13137972,-0.086983275,-0.042357093,-0.14800059,-0.08375555,-0.11181744,-0.060165205,-0.04740948,-0.093785644,-0.037355099,0.097181453,0.56298587,1.1266823,1.3167255,1.6499042,2.001308,1.9024589,1.353065,0.905431,0.88759105,0.81517285,-0.54264458,1
